20.0000	242.0000
20.0195	253.0000
20.0389	252.0000
20.0584	242.0000
20.0778	254.0000
20.0973	255.0000
20.1167	264.0000
20.1362	247.0000
20.1557	267.0000
20.1751	245.0000
20.1946	230.0000
20.2140	251.0000
20.2335	257.0000
20.2529	232.0000
20.2724	244.0000
20.2919	259.0000
20.3113	255.0000
20.3308	255.0000
20.3502	266.0000
20.3697	230.0000
20.3891	265.0000
20.4086	260.0000
20.4281	245.0000
20.4475	246.0000
20.4670	268.0000
20.4864	273.0000
20.5059	260.0000
20.5253	258.0000
20.5448	245.0000
20.5643	275.0000
20.5837	267.0000
20.6032	259.0000
20.6226	270.0000
20.6421	255.0000
20.6615	233.0000
20.6810	241.0000
20.7005	228.0000
20.7199	230.0000
20.7394	247.0000
20.7588	246.0000
20.7783	247.0000
20.7977	230.0000
20.8172	260.0000
20.8367	259.0000
20.8561	259.0000
20.8756	239.0000
20.8950	247.0000
20.9145	245.0000
20.9339	269.0000
20.9534	264.0000
20.9729	269.0000
20.9923	226.0000
21.0118	221.0000
21.0312	256.0000
21.0507	247.0000
21.0701	237.0000
21.0896	243.0000
21.1091	256.0000
21.1285	238.0000
21.1480	243.0000
21.1674	226.0000
21.1869	234.0000
21.2063	243.0000
21.2258	267.0000
21.2453	269.0000
21.2647	250.0000
21.2842	236.0000
21.3036	246.0000
21.3231	258.0000
21.3425	251.0000
21.3620	250.0000
21.3815	260.0000
21.4009	255.0000
21.4204	255.0000
21.4398	248.0000
21.4593	261.0000
21.4787	269.0000
21.4982	217.0000
21.5176	248.0000
21.5371	255.0000
21.5566	227.0000
21.5760	243.0000
21.5955	249.0000
21.6149	269.0000
21.6344	258.0000
21.6538	230.0000
21.6733	253.0000
21.6928	256.0000
21.7122	217.0000
21.7317	262.0000
21.7511	231.0000
21.7706	247.0000
21.7900	244.0000
21.8095	256.0000
21.8290	269.0000
21.8484	246.0000
21.8679	232.0000
21.8873	256.0000
21.9068	277.0000
21.9262	257.0000
21.9457	244.0000
21.9652	272.0000
21.9846	230.0000
22.0041	236.0000
22.0235	263.0000
22.0430	270.0000
22.0624	234.0000
22.0819	248.0000
22.1014	242.0000
22.1208	261.0000
22.1403	227.0000
22.1597	252.0000
22.1792	284.0000
22.1986	257.0000
22.2181	254.0000
22.2376	269.0000
22.2570	266.0000
22.2765	279.0000
22.2959	236.0000
22.3154	263.0000
22.3348	293.0000
22.3543	247.0000
22.3738	279.0000
22.3932	254.0000
22.4127	264.0000
22.4321	259.0000
22.4516	264.0000
22.4710	252.0000
22.4905	234.0000
22.5100	267.0000
22.5294	253.0000
22.5489	278.0000
22.5683	269.0000
22.5878	245.0000
22.6072	253.0000
22.6267	261.0000
22.6462	256.0000
22.6656	251.0000
22.6851	228.0000
22.7045	233.0000
22.7240	247.0000
22.7434	253.0000
22.7629	263.0000
22.7824	258.0000
22.8018	244.0000
22.8213	246.0000
22.8407	254.0000
22.8602	233.0000
22.8796	251.0000
22.8991	254.0000
22.9186	248.0000
22.9380	235.0000
22.9575	266.0000
22.9769	238.0000
22.9964	241.0000
23.0158	247.0000
23.0353	232.0000
23.0548	236.0000
23.0742	257.0000
23.0937	250.0000
23.1131	248.0000
23.1326	270.0000
23.1520	236.0000
23.1715	230.0000
23.1910	222.0000
23.2104	266.0000
23.2299	252.0000
23.2493	316.0000
23.2688	267.0000
23.2882	224.0000
23.3077	251.0000
23.3272	247.0000
23.3466	225.0000
23.3661	249.0000
23.3855	252.0000
23.4050	248.0000
23.4244	244.0000
23.4439	238.0000
23.4634	260.0000
23.4828	267.0000
23.5023	262.0000
23.5217	266.0000
23.5412	275.0000
23.5606	229.0000
23.5801	248.0000
23.5996	255.0000
23.6190	259.0000
23.6385	278.0000
23.6579	259.0000
23.6774	267.0000
23.6968	270.0000
23.7163	227.0000
23.7358	251.0000
23.7552	227.0000
23.7747	231.0000
23.7941	267.0000
23.8136	273.0000
23.8330	247.0000
23.8525	257.0000
23.8720	238.0000
23.8914	264.0000
23.9109	258.0000
23.9303	247.0000
23.9498	232.0000
23.9692	269.0000
23.9887	282.0000
24.0082	252.0000
24.0276	249.0000
24.0471	249.0000
24.0665	244.0000
24.0860	253.0000
24.1054	245.0000
24.1249	255.0000
24.1444	248.0000
24.1638	238.0000
24.1833	246.0000
24.2027	254.0000
24.2222	241.0000
24.2416	245.0000
24.2611	250.0000
24.2805	242.0000
24.3000	259.0000
24.3195	271.0000
24.3389	225.0000
24.3584	231.0000
24.3778	263.0000
24.3973	255.0000
24.4167	267.0000
24.4362	254.0000
24.4557	249.0000
24.4751	229.0000
24.4946	247.0000
24.5140	260.0000
24.5335	249.0000
24.5529	258.0000
24.5724	259.0000
24.5919	246.0000
24.6113	250.0000
24.6308	245.0000
24.6502	274.0000
24.6697	236.0000
24.6891	257.0000
24.7086	260.0000
24.7281	242.0000
24.7475	249.0000
24.7670	273.0000
24.7864	236.0000
24.8059	249.0000
24.8253	257.0000
24.8448	267.0000
24.8643	269.0000
24.8837	248.0000
24.9032	267.0000
24.9226	261.0000
24.9421	271.0000
24.9615	246.0000
24.9810	259.0000
25.0005	269.0000
25.0199	258.0000
25.0394	266.0000
25.0588	246.0000
25.0783	240.0000
25.0977	273.0000
25.1172	263.0000
25.1367	245.0000
25.1561	241.0000
25.1756	268.0000
25.1950	260.0000
25.2145	274.0000
25.2339	225.0000
25.2534	250.0000
25.2729	281.0000
25.2923	266.0000
25.3118	276.0000
25.3312	229.0000
25.3507	288.0000
25.3701	244.0000
25.3896	246.0000
25.4091	246.0000
25.4285	235.0000
25.4480	240.0000
25.4674	256.0000
25.4869	251.0000
25.5063	249.0000
25.5258	252.0000
25.5453	252.0000
25.5647	269.0000
25.5842	234.0000
25.6036	251.0000
25.6231	256.0000
25.6425	246.0000
25.6620	271.0000
25.6815	267.0000
25.7009	267.0000
25.7204	262.0000
25.7398	264.0000
25.7593	265.0000
25.7787	241.0000
25.7982	258.0000
25.8177	253.0000
25.8371	262.0000
25.8566	251.0000
25.8760	285.0000
25.8955	270.0000
25.9149	251.0000
25.9344	260.0000
25.9539	262.0000
25.9733	252.0000
25.9928	250.0000
26.0122	272.0000
26.0317	242.0000
26.0511	269.0000
26.0706	257.0000
26.0901	247.0000
26.1095	315.0000
26.1290	274.0000
26.1484	241.0000
26.1679	229.0000
26.1873	278.0000
26.2068	253.0000
26.2263	284.0000
26.2457	233.0000
26.2652	282.0000
26.2846	231.0000
26.3041	251.0000
26.3235	238.0000
26.3430	275.0000
26.3625	261.0000
26.3819	248.0000
26.4014	259.0000
26.4208	237.0000
26.4403	262.0000
26.4597	251.0000
26.4792	245.0000
26.4987	267.0000
26.5181	258.0000
26.5376	232.0000
26.5570	249.0000
26.5765	265.0000
26.5959	244.0000
26.6154	259.0000
26.6349	245.0000
26.6543	248.0000
26.6738	235.0000
26.6932	235.0000
26.7127	270.0000
26.7321	232.0000
26.7516	248.0000
26.7711	264.0000
26.7905	239.0000
26.8100	258.0000
26.8294	260.0000
26.8489	247.0000
26.8683	248.0000
26.8878	253.0000
26.9073	264.0000
26.9267	252.0000
26.9462	240.0000
26.9656	281.0000
26.9851	265.0000
27.0045	248.0000
27.0240	269.0000
27.0434	236.0000
27.0629	246.0000
27.0824	283.0000
27.1018	268.0000
27.1213	279.0000
27.1407	254.0000
27.1602	261.0000
27.1796	260.0000
27.1991	259.0000
27.2186	247.0000
27.2380	279.0000
27.2575	259.0000
27.2769	255.0000
27.2964	238.0000
27.3158	270.0000
27.3353	275.0000
27.3548	264.0000
27.3742	269.0000
27.3937	259.0000
27.4131	261.0000
27.4326	259.0000
27.4520	244.0000
27.4715	266.0000
27.4910	257.0000
27.5104	244.0000
27.5299	260.0000
27.5493	250.0000
27.5688	272.0000
27.5882	259.0000
27.6077	257.0000
27.6272	278.0000
27.6466	244.0000
27.6661	296.0000
27.6855	249.0000
27.7050	248.0000
27.7244	273.0000
27.7439	286.0000
27.7634	251.0000
27.7828	235.0000
27.8023	241.0000
27.8217	278.0000
27.8412	218.0000
27.8606	281.0000
27.8801	260.0000
27.8996	278.0000
27.9190	249.0000
27.9385	268.0000
27.9579	242.0000
27.9774	249.0000
27.9968	237.0000
28.0163	280.0000
28.0358	279.0000
28.0552	253.0000
28.0747	247.0000
28.0941	270.0000
28.1136	231.0000
28.1330	267.0000
28.1525	271.0000
28.1720	255.0000
28.1914	257.0000
28.2109	258.0000
28.2303	254.0000
28.2498	243.0000
28.2692	288.0000
28.2887	235.0000
28.3082	259.0000
28.3276	253.0000
28.3471	236.0000
28.3665	256.0000
28.3860	245.0000
28.4054	244.0000
28.4249	263.0000
28.4444	265.0000
28.4638	279.0000
28.4833	260.0000
28.5027	254.0000
28.5222	263.0000
28.5416	289.0000
28.5611	276.0000
28.5806	237.0000
28.6000	245.0000
28.6195	233.0000
28.6389	258.0000
28.6584	248.0000
28.6778	256.0000
28.6973	255.0000
28.7168	244.0000
28.7362	273.0000
28.7557	242.0000
28.7751	279.0000
28.7946	267.0000
28.8140	233.0000
28.8335	258.0000
28.8530	256.0000
28.8724	217.0000
28.8919	256.0000
28.9113	269.0000
28.9308	247.0000
28.9502	242.0000
28.9697	255.0000
28.9892	257.0000
29.0086	246.0000
29.0281	268.0000
29.0475	244.0000
29.0670	270.0000
29.0864	220.0000
29.1059	265.0000
29.1254	241.0000
29.1448	255.0000
29.1643	241.0000
29.1837	243.0000
29.2032	248.0000
29.2226	286.0000
29.2421	262.0000
29.2616	242.0000
29.2810	240.0000
29.3005	245.0000
29.3199	230.0000
29.3394	248.0000
29.3588	255.0000
29.3783	258.0000
29.3978	255.0000
29.4172	264.0000
29.4367	251.0000
29.4561	298.0000
29.4756	248.0000
29.4950	222.0000
29.5145	256.0000
29.5340	252.0000
29.5534	237.0000
29.5729	246.0000
29.5923	258.0000
29.6118	278.0000
29.6312	259.0000
29.6507	268.0000
29.6702	251.0000
29.6896	259.0000
29.7091	247.0000
29.7285	266.0000
29.7480	273.0000
29.7674	280.0000
29.7869	243.0000
29.8063	247.0000
29.8258	233.0000
29.8453	249.0000
29.8647	253.0000
29.8842	264.0000
29.9036	239.0000
29.9231	258.0000
29.9425	250.0000
29.9620	246.0000
29.9815	280.0000
30.0009	278.0000
30.0204	290.0000
30.0398	244.0000
30.0593	281.0000
30.0787	236.0000
30.0982	268.0000
30.1177	259.0000
30.1371	230.0000
30.1566	242.0000
30.1760	232.0000
30.1955	272.0000
30.2149	283.0000
30.2344	239.0000
30.2539	232.0000
30.2733	270.0000
30.2928	282.0000
30.3122	237.0000
30.3317	260.0000
30.3511	260.0000
30.3706	263.0000
30.3901	271.0000
30.4095	283.0000
30.4290	291.0000
30.4484	235.0000
30.4679	262.0000
30.4873	247.0000
30.5068	255.0000
30.5263	252.0000
30.5457	266.0000
30.5652	278.0000
30.5846	264.0000
30.6041	244.0000
30.6235	251.0000
30.6430	264.0000
30.6625	275.0000
30.6819	269.0000
30.7014	250.0000
30.7208	281.0000
30.7403	242.0000
30.7597	259.0000
30.7792	230.0000
30.7987	268.0000
30.8181	271.0000
30.8376	227.0000
30.8570	251.0000
30.8765	232.0000
30.8959	272.0000
30.9154	273.0000
30.9349	253.0000
30.9543	236.0000
30.9738	258.0000
30.9932	243.0000
31.0127	262.0000
31.0321	260.0000
31.0516	252.0000
31.0711	260.0000
31.0905	262.0000
31.1100	242.0000
31.1294	254.0000
31.1489	246.0000
31.1683	265.0000
31.1878	246.0000
31.2073	272.0000
31.2267	271.0000
31.2462	249.0000
31.2656	240.0000
31.2851	291.0000
31.3045	280.0000
31.3240	253.0000
31.3435	241.0000
31.3629	273.0000
31.3824	262.0000
31.4018	256.0000
31.4213	252.0000
31.4407	288.0000
31.4602	295.0000
31.4797	255.0000
31.4991	272.0000
31.5186	279.0000
31.5380	292.0000
31.5575	254.0000
31.5769	250.0000
31.5964	239.0000
31.6159	253.0000
31.6353	272.0000
31.6548	248.0000
31.6742	261.0000
31.6937	239.0000
31.7131	269.0000
31.7326	258.0000
31.7521	292.0000
31.7715	231.0000
31.7910	249.0000
31.8104	243.0000
31.8299	257.0000
31.8493	273.0000
31.8688	267.0000
31.8883	251.0000
31.9077	234.0000
31.9272	253.0000
31.9466	249.0000
31.9661	267.0000
31.9855	271.0000
32.0050	270.0000
32.0245	245.0000
32.0439	281.0000
32.0634	248.0000
32.0828	266.0000
32.1023	264.0000
32.1217	233.0000
32.1412	274.0000
32.1607	276.0000
32.1801	270.0000
32.1996	264.0000
32.2190	253.0000
32.2385	256.0000
32.2579	256.0000
32.2774	258.0000
32.2969	282.0000
32.3163	276.0000
32.3358	240.0000
32.3552	241.0000
32.3747	257.0000
32.3941	244.0000
32.4136	263.0000
32.4331	230.0000
32.4525	256.0000
32.4720	258.0000
32.4914	254.0000
32.5109	253.0000
32.5303	261.0000
32.5498	253.0000
32.5692	254.0000
32.5887	240.0000
32.6082	254.0000
32.6276	253.0000
32.6471	252.0000
32.6665	239.0000
32.6860	266.0000
32.7054	250.0000
32.7249	229.0000
32.7444	267.0000
32.7638	265.0000
32.7833	249.0000
32.8027	230.0000
32.8222	268.0000
32.8416	286.0000
32.8611	258.0000
32.8806	256.0000
32.9000	231.0000
32.9195	251.0000
32.9389	248.0000
32.9584	259.0000
32.9778	255.0000
32.9973	254.0000
33.0168	280.0000
33.0362	263.0000
33.0557	223.0000
33.0751	235.0000
33.0946	283.0000
33.1140	243.0000
33.1335	239.0000
33.1530	261.0000
33.1724	263.0000
33.1919	232.0000
33.2113	273.0000
33.2308	282.0000
33.2502	288.0000
33.2697	264.0000
33.2892	275.0000
33.3086	250.0000
33.3281	254.0000
33.3475	295.0000
33.3670	280.0000
33.3864	282.0000
33.4059	260.0000
33.4254	263.0000
33.4448	247.0000
33.4643	268.0000
33.4837	245.0000
33.5032	255.0000
33.5226	272.0000
33.5421	261.0000
33.5616	263.0000
33.5810	222.0000
33.6005	257.0000
33.6199	277.0000
33.6394	243.0000
33.6588	240.0000
33.6783	252.0000
33.6978	255.0000
33.7172	254.0000
33.7367	278.0000
33.7561	269.0000
33.7756	237.0000
33.7950	282.0000
33.8145	275.0000
33.8340	268.0000
33.8534	247.0000
33.8729	274.0000
33.8923	249.0000
33.9118	261.0000
33.9312	268.0000
33.9507	261.0000
33.9702	263.0000
33.9896	267.0000
34.0091	255.0000
34.0285	275.0000
34.0480	257.0000
34.0674	262.0000
34.0869	248.0000
34.1064	257.0000
34.1258	267.0000
34.1453	283.0000
34.1647	273.0000
34.1842	255.0000
34.2036	237.0000
34.2231	238.0000
34.2426	246.0000
34.2620	238.0000
34.2815	278.0000
34.3009	245.0000
34.3204	271.0000
34.3398	223.0000
34.3593	268.0000
34.3788	231.0000
34.3982	244.0000
34.4177	255.0000
34.4371	253.0000
34.4566	260.0000
34.4760	284.0000
34.4955	271.0000
34.5150	256.0000
34.5344	268.0000
34.5539	271.0000
34.5733	253.0000
34.5928	240.0000
34.6122	240.0000
34.6317	261.0000
34.6512	292.0000
34.6706	256.0000
34.6901	231.0000
34.7095	279.0000
34.7290	273.0000
34.7484	261.0000
34.7679	266.0000
34.7874	279.0000
34.8068	265.0000
34.8263	258.0000
34.8457	272.0000
34.8652	256.0000
34.8846	271.0000
34.9041	271.0000
34.9236	276.0000
34.9430	264.0000
34.9625	261.0000
34.9819	252.0000
35.0014	274.0000
35.0208	289.0000
35.0403	271.0000
35.0598	256.0000
35.0792	266.0000
35.0987	238.0000
35.1181	267.0000
35.1376	285.0000
35.1570	266.0000
35.1765	263.0000
35.1960	266.0000
35.2154	281.0000
35.2349	283.0000
35.2543	272.0000
35.2738	264.0000
35.2932	291.0000
35.3127	247.0000
35.3322	251.0000
35.3516	301.0000
35.3711	250.0000
35.3905	284.0000
35.4100	258.0000
35.4294	258.0000
35.4489	261.0000
35.4683	261.0000
35.4878	255.0000
35.5073	270.0000
35.5267	308.0000
35.5462	293.0000
35.5656	246.0000
35.5851	232.0000
35.6045	269.0000
35.6240	307.0000
35.6435	283.0000
35.6629	240.0000
35.6824	257.0000
35.7018	266.0000
35.7213	253.0000
35.7407	292.0000
35.7602	284.0000
35.7797	255.0000
35.7991	276.0000
35.8186	254.0000
35.8380	246.0000
35.8575	252.0000
35.8769	277.0000
35.8964	291.0000
35.9159	287.0000
35.9353	244.0000
35.9548	280.0000
35.9742	271.0000
35.9937	279.0000
36.0131	260.0000
36.0326	249.0000
36.0521	279.0000
36.0715	278.0000
36.0910	283.0000
36.1104	256.0000
36.1299	249.0000
36.1493	258.0000
36.1688	246.0000
36.1883	286.0000
36.2077	282.0000
36.2272	284.0000
36.2466	282.0000
36.2661	285.0000
36.2855	268.0000
36.3050	239.0000
36.3245	281.0000
36.3439	262.0000
36.3634	260.0000
36.3828	292.0000
36.4023	273.0000
36.4217	259.0000
36.4412	240.0000
36.4607	265.0000
36.4801	268.0000
36.4996	278.0000
36.5190	260.0000
36.5385	270.0000
36.5579	271.0000
36.5774	287.0000
36.5969	260.0000
36.6163	264.0000
36.6358	290.0000
36.6552	260.0000
36.6747	261.0000
36.6941	246.0000
36.7136	280.0000
36.7331	282.0000
36.7525	260.0000
36.7720	277.0000
36.7914	265.0000
36.8109	269.0000
36.8303	263.0000
36.8498	286.0000
36.8693	273.0000
36.8887	293.0000
36.9082	276.0000
36.9276	270.0000
36.9471	280.0000
36.9665	243.0000
36.9860	299.0000
37.0055	257.0000
37.0249	240.0000
37.0444	246.0000
37.0638	258.0000
37.0833	287.0000
37.1027	250.0000
37.1222	261.0000
37.1417	251.0000
37.1611	266.0000
37.1806	235.0000
37.2000	262.0000
37.2195	271.0000
37.2389	224.0000
37.2584	273.0000
37.2779	258.0000
37.2973	243.0000
37.3168	266.0000
37.3362	241.0000
37.3557	275.0000
37.3751	262.0000
37.3946	251.0000
37.4141	229.0000
37.4335	257.0000
37.4530	250.0000
37.4724	249.0000
37.4919	247.0000
37.5113	246.0000
37.5308	253.0000
37.5503	270.0000
37.5697	253.0000
37.5892	261.0000
37.6086	269.0000
37.6281	278.0000
37.6475	288.0000
37.6670	271.0000
37.6865	229.0000
37.7059	272.0000
37.7254	252.0000
37.7448	270.0000
37.7643	273.0000
37.7837	273.0000
37.8032	238.0000
37.8227	228.0000
37.8421	256.0000
37.8616	246.0000
37.8810	271.0000
37.9005	267.0000
37.9199	286.0000
37.9394	270.0000
37.9589	290.0000
37.9783	294.0000
37.9978	252.0000
38.0172	243.0000
38.0367	257.0000
38.0561	274.0000
38.0756	262.0000
38.0951	284.0000
38.1145	253.0000
38.1340	274.0000
38.1534	288.0000
38.1729	234.0000
38.1923	274.0000
38.2118	252.0000
38.2312	268.0000
38.2507	270.0000
38.2702	238.0000
38.2896	238.0000
38.3091	264.0000
38.3285	249.0000
38.3480	263.0000
38.3674	247.0000
38.3869	276.0000
38.4064	296.0000
38.4258	280.0000
38.4453	299.0000
38.4647	248.0000
38.4842	290.0000
38.5036	282.0000
38.5231	252.0000
38.5426	260.0000
38.5620	268.0000
38.5815	258.0000
38.6009	260.0000
38.6204	246.0000
38.6398	302.0000
38.6593	254.0000
38.6788	245.0000
38.6982	228.0000
38.7177	289.0000
38.7371	238.0000
38.7566	262.0000
38.7760	274.0000
38.7955	281.0000
38.8150	273.0000
38.8344	252.0000
38.8539	268.0000
38.8733	275.0000
38.8928	276.0000
38.9122	263.0000
38.9317	256.0000
38.9512	284.0000
38.9706	276.0000
38.9901	267.0000
39.0095	286.0000
39.0290	277.0000
39.0484	258.0000
39.0679	264.0000
39.0874	276.0000
39.1068	257.0000
39.1263	280.0000
39.1457	285.0000
39.1652	275.0000
39.1846	243.0000
39.2041	250.0000
39.2236	247.0000
39.2430	248.0000
39.2625	256.0000
39.2819	283.0000
39.3014	258.0000
39.3208	263.0000
39.3403	290.0000
39.3598	266.0000
39.3792	255.0000
39.3987	272.0000
39.4181	281.0000
39.4376	243.0000
39.4570	266.0000
39.4765	256.0000
39.4960	296.0000
39.5154	261.0000
39.5349	297.0000
39.5543	287.0000
39.5738	254.0000
39.5932	268.0000
39.6127	269.0000
39.6322	319.0000
39.6516	259.0000
39.6711	270.0000
39.6905	278.0000
39.7100	284.0000
39.7294	250.0000
39.7489	272.0000
39.7684	258.0000
39.7878	281.0000
39.8073	230.0000
39.8267	271.0000
39.8462	238.0000
39.8656	244.0000
39.8851	255.0000
39.9046	289.0000
39.9240	267.0000
39.9435	273.0000
39.9629	264.0000
39.9824	262.0000
40.0018	246.0000
40.0213	253.0000
40.0408	262.0000
40.0602	253.0000
40.0797	241.0000
40.0991	275.0000
40.1186	298.0000
40.1380	233.0000
40.1575	241.0000
40.1770	276.0000
40.1964	259.0000
40.2159	292.0000
40.2353	264.0000
40.2548	271.0000
40.2742	286.0000
40.2937	279.0000
40.3132	263.0000
40.3326	245.0000
40.3521	257.0000
40.3715	284.0000
40.3910	246.0000
40.4104	251.0000
40.4299	259.0000
40.4494	281.0000
40.4688	256.0000
40.4883	253.0000
40.5077	252.0000
40.5272	294.0000
40.5466	265.0000
40.5661	291.0000
40.5856	262.0000
40.6050	253.0000
40.6245	262.0000
40.6439	258.0000
40.6634	313.0000
40.6828	251.0000
40.7023	258.0000
40.7218	251.0000
40.7412	219.0000
40.7607	273.0000
40.7801	261.0000
40.7996	249.0000
40.8190	267.0000
40.8385	280.0000
40.8580	266.0000
40.8774	275.0000
40.8969	274.0000
40.9163	256.0000
40.9358	270.0000
40.9552	283.0000
40.9747	279.0000
40.9941	276.0000
41.0136	276.0000
41.0331	284.0000
41.0525	260.0000
41.0720	272.0000
41.0914	266.0000
41.1109	276.0000
41.1303	264.0000
41.1498	269.0000
41.1693	265.0000
41.1887	262.0000
41.2082	275.0000
41.2276	252.0000
41.2471	282.0000
41.2665	259.0000
41.2860	277.0000
41.3055	272.0000
41.3249	275.0000
41.3444	255.0000
41.3638	295.0000
41.3833	279.0000
41.4027	292.0000
41.4222	287.0000
41.4417	258.0000
41.4611	273.0000
41.4806	268.0000
41.5000	276.0000
41.5195	273.0000
41.5389	269.0000
41.5584	270.0000
41.5779	229.0000
41.5973	280.0000
41.6168	293.0000
41.6362	277.0000
41.6557	276.0000
41.6751	264.0000
41.6946	244.0000
41.7141	261.0000
41.7335	294.0000
41.7530	284.0000
41.7724	290.0000
41.7919	273.0000
41.8113	256.0000
41.8308	277.0000
41.8503	236.0000
41.8697	284.0000
41.8892	286.0000
41.9086	309.0000
41.9281	265.0000
41.9475	271.0000
41.9670	253.0000
41.9865	290.0000
42.0059	261.0000
42.0254	261.0000
42.0448	281.0000
42.0643	274.0000
42.0837	289.0000
42.1032	289.0000
42.1227	261.0000
42.1421	260.0000
42.1616	236.0000
42.1810	278.0000
42.2005	297.0000
42.2199	281.0000
42.2394	247.0000
42.2589	292.0000
42.2783	277.0000
42.2978	272.0000
42.3172	255.0000
42.3367	265.0000
42.3561	273.0000
42.3756	268.0000
42.3951	267.0000
42.4145	277.0000
42.4340	270.0000
42.4534	292.0000
42.4729	237.0000
42.4923	286.0000
42.5118	248.0000
42.5313	259.0000
42.5507	279.0000
42.5702	277.0000
42.5896	277.0000
42.6091	274.0000
42.6285	256.0000
42.6480	263.0000
42.6675	295.0000
42.6869	294.0000
42.7064	298.0000
42.7258	269.0000
42.7453	269.0000
42.7647	300.0000
42.7842	273.0000
42.8037	304.0000
42.8231	299.0000
42.8426	332.0000
42.8620	264.0000
42.8815	317.0000
42.9009	298.0000
42.9204	311.0000
42.9399	305.0000
42.9593	315.0000
42.9788	278.0000
42.9982	306.0000
43.0177	291.0000
43.0371	319.0000
43.0566	311.0000
43.0761	294.0000
43.0955	332.0000
43.1150	311.0000
43.1344	286.0000
43.1539	340.0000
43.1733	294.0000
43.1928	331.0000
43.2123	328.0000
43.2317	371.0000
43.2512	368.0000
43.2706	351.0000
43.2901	360.0000
43.3095	410.0000
43.3290	414.0000
43.3485	428.0000
43.3679	431.0000
43.3874	413.0000
43.4068	436.0000
43.4263	480.0000
43.4457	446.0000
43.4652	517.0000
43.4847	535.0000
43.5041	574.0000
43.5236	576.0000
43.5430	665.0000
43.5625	656.0000
43.5819	695.0000
43.6014	740.0000
43.6209	779.0000
43.6403	811.0000
43.6598	858.0000
43.6792	909.0000
43.6987	863.0000
43.7181	861.0000
43.7376	849.0000
43.7570	848.0000
43.7765	853.0000
43.7960	797.0000
43.8154	804.0000
43.8349	751.0000
43.8543	710.0000
43.8738	662.0000
43.8932	638.0000
43.9127	586.0000
43.9322	570.0000
43.9516	518.0000
43.9711	521.0000
43.9905	479.0000
44.0100	465.0000
44.0294	449.0000
44.0489	460.0000
44.0684	451.0000
44.0878	413.0000
44.1073	407.0000
44.1267	370.0000
44.1462	366.0000
44.1656	363.0000
44.1851	353.0000
44.2046	362.0000
44.2240	340.0000
44.2435	331.0000
44.2629	299.0000
44.2824	348.0000
44.3018	344.0000
44.3213	323.0000
44.3408	343.0000
44.3602	345.0000
44.3797	313.0000
44.3991	346.0000
44.4186	330.0000
44.4380	314.0000
44.4575	288.0000
44.4770	333.0000
44.4964	318.0000
44.5159	304.0000
44.5353	304.0000
44.5548	282.0000
44.5742	291.0000
44.5937	294.0000
44.6132	280.0000
44.6326	287.0000
44.6521	278.0000
44.6715	305.0000
44.6910	282.0000
44.7104	290.0000
44.7299	278.0000
44.7494	292.0000
44.7688	288.0000
44.7883	299.0000
44.8077	277.0000
44.8272	272.0000
44.8466	298.0000
44.8661	278.0000
44.8856	295.0000
44.9050	330.0000
44.9245	266.0000
44.9439	258.0000
44.9634	294.0000
44.9828	253.0000
45.0023	270.0000
45.0218	303.0000
45.0412	280.0000
45.0607	268.0000
45.0801	286.0000
45.0996	298.0000
45.1190	293.0000
45.1385	253.0000
45.1580	293.0000
45.1774	291.0000
45.1969	290.0000
45.2163	291.0000
45.2358	263.0000
45.2552	279.0000
45.2747	267.0000
45.2942	284.0000
45.3136	303.0000
45.3331	264.0000
45.3525	286.0000
45.3720	305.0000
45.3914	320.0000
45.4109	259.0000
45.4304	286.0000
45.4498	252.0000
45.4693	300.0000
45.4887	280.0000
45.5082	279.0000
45.5276	276.0000
45.5471	283.0000
45.5666	251.0000
45.5860	317.0000
45.6055	250.0000
45.6249	293.0000
45.6444	310.0000
45.6638	265.0000
45.6833	271.0000
45.7028	270.0000
45.7222	270.0000
45.7417	262.0000
45.7611	297.0000
45.7806	263.0000
45.8000	277.0000
45.8195	249.0000
45.8390	287.0000
45.8584	262.0000
45.8779	292.0000
45.8973	298.0000
45.9168	291.0000
45.9362	278.0000
45.9557	271.0000
45.9752	270.0000
45.9946	291.0000
46.0141	292.0000
46.0335	309.0000
46.0530	295.0000
46.0724	279.0000
46.0919	257.0000
46.1114	292.0000
46.1308	292.0000
46.1503	260.0000
46.1697	273.0000
46.1892	318.0000
46.2086	262.0000
46.2281	300.0000
46.2476	265.0000
46.2670	257.0000
46.2865	263.0000
46.3059	287.0000
46.3254	273.0000
46.3448	285.0000
46.3643	273.0000
46.3838	309.0000
46.4032	278.0000
46.4227	274.0000
46.4421	276.0000
46.4616	269.0000
46.4810	239.0000
46.5005	266.0000
46.5199	269.0000
46.5394	270.0000
46.5589	293.0000
46.5783	253.0000
46.5978	242.0000
46.6172	277.0000
46.6367	266.0000
46.6561	288.0000
46.6756	269.0000
46.6951	275.0000
46.7145	268.0000
46.7340	251.0000
46.7534	284.0000
46.7729	277.0000
46.7923	281.0000
46.8118	271.0000
46.8313	290.0000
46.8507	255.0000
46.8702	271.0000
46.8896	276.0000
46.9091	261.0000
46.9285	260.0000
46.9480	297.0000
46.9675	303.0000
46.9869	279.0000
47.0064	301.0000
47.0258	251.0000
47.0453	292.0000
47.0647	271.0000
47.0842	303.0000
47.1037	275.0000
47.1231	276.0000
47.1426	263.0000
47.1620	268.0000
47.1815	281.0000
47.2009	262.0000
47.2204	252.0000
47.2399	285.0000
47.2593	291.0000
47.2788	291.0000
47.2982	288.0000
47.3177	256.0000
47.3371	302.0000
47.3566	250.0000
47.3761	277.0000
47.3955	274.0000
47.4150	284.0000
47.4344	309.0000
47.4539	276.0000
47.4733	252.0000
47.4928	276.0000
47.5123	258.0000
47.5317	276.0000
47.5512	292.0000
47.5706	280.0000
47.5901	270.0000
47.6095	276.0000
47.6290	264.0000
47.6485	259.0000
47.6679	262.0000
47.6874	285.0000
47.7068	232.0000
47.7263	270.0000
47.7457	287.0000
47.7652	269.0000
47.7847	261.0000
47.8041	278.0000
47.8236	271.0000
47.8430	275.0000
47.8625	273.0000
47.8819	241.0000
47.9014	273.0000
47.9209	292.0000
47.9403	305.0000
47.9598	282.0000
47.9792	289.0000
47.9987	286.0000
48.0181	283.0000
48.0376	275.0000
48.0571	281.0000
48.0765	259.0000
48.0960	272.0000
48.1154	268.0000
48.1349	301.0000
48.1543	271.0000
48.1738	240.0000
48.1933	280.0000
48.2127	269.0000
48.2322	288.0000
48.2516	248.0000
48.2711	258.0000
48.2905	282.0000
48.3100	268.0000
48.3295	271.0000
48.3489	283.0000
48.3684	282.0000
48.3878	283.0000
48.4073	286.0000
48.4267	263.0000
48.4462	298.0000
48.4657	292.0000
48.4851	269.0000
48.5046	271.0000
48.5240	266.0000
48.5435	267.0000
48.5629	283.0000
48.5824	302.0000
48.6019	288.0000
48.6213	280.0000
48.6408	284.0000
48.6602	252.0000
48.6797	258.0000
48.6991	282.0000
48.7186	278.0000
48.7381	264.0000
48.7575	309.0000
48.7770	297.0000
48.7964	254.0000
48.8159	283.0000
48.8353	298.0000
48.8548	280.0000
48.8743	268.0000
48.8937	300.0000
48.9132	289.0000
48.9326	260.0000
48.9521	273.0000
48.9715	289.0000
48.9910	257.0000
49.0105	285.0000
49.0299	287.0000
49.0494	301.0000
49.0688	295.0000
49.0883	280.0000
49.1077	305.0000
49.1272	330.0000
49.1467	285.0000
49.1661	252.0000
49.1856	286.0000
49.2050	279.0000
49.2245	316.0000
49.2439	276.0000
49.2634	301.0000
49.2829	302.0000
49.3023	308.0000
49.3218	282.0000
49.3412	315.0000
49.3607	300.0000
49.3801	278.0000
49.3996	243.0000
49.4190	304.0000
49.4385	295.0000
49.4580	283.0000
49.4774	284.0000
49.4969	312.0000
49.5163	298.0000
49.5358	319.0000
49.5552	286.0000
49.5747	305.0000
49.5942	300.0000
49.6136	292.0000
49.6331	308.0000
49.6525	302.0000
49.6720	281.0000
49.6914	325.0000
49.7109	292.0000
49.7304	268.0000
49.7498	293.0000
49.7693	291.0000
49.7887	312.0000
49.8082	311.0000
49.8276	322.0000
49.8471	330.0000
49.8666	326.0000
49.8860	329.0000
49.9055	326.0000
49.9249	328.0000
49.9444	323.0000
49.9638	296.0000
49.9833	301.0000
50.0028	318.0000
50.0222	307.0000
50.0417	360.0000
50.0611	364.0000
50.0806	338.0000
50.1000	354.0000
50.1195	357.0000
50.1390	367.0000
50.1584	360.0000
50.1779	391.0000
50.1973	410.0000
50.2168	356.0000
50.2362	401.0000
50.2557	391.0000
50.2752	391.0000
50.2946	406.0000
50.3141	420.0000
50.3335	447.0000
50.3530	489.0000
50.3724	490.0000
50.3919	485.0000
50.4114	502.0000
50.4308	564.0000
50.4503	560.0000
50.4697	599.0000
50.4892	632.0000
50.5086	660.0000
50.5281	761.0000
50.5476	746.0000
50.5670	837.0000
50.5865	913.0000
50.6059	964.0000
50.6254	1030.0000
50.6448	1129.0000
50.6643	1189.0000
50.6838	1329.0000
50.7032	1378.0000
50.7227	1515.0000
50.7421	1531.0000
50.7616	1548.0000
50.7810	1716.0000
50.8005	1745.0000
50.8200	1775.0000
50.8394	1793.0000
50.8589	1710.0000
50.8783	1652.0000
50.8978	1523.0000
50.9172	1444.0000
50.9367	1372.0000
50.9562	1285.0000
50.9756	1206.0000
50.9951	1121.0000
51.0145	1100.0000
51.0340	1008.0000
51.0534	855.0000
51.0729	764.0000
51.0924	701.0000
51.1118	637.0000
51.1313	645.0000
51.1507	559.0000
51.1702	592.0000
51.1896	550.0000
51.2091	501.0000
51.2286	452.0000
51.2480	430.0000
51.2675	443.0000
51.2869	394.0000
51.3064	401.0000
51.3258	412.0000
51.3453	380.0000
51.3648	359.0000
51.3842	347.0000
51.4037	341.0000
51.4231	342.0000
51.4426	335.0000
51.4620	309.0000
51.4815	343.0000
51.5010	335.0000
51.5204	317.0000
51.5399	333.0000
51.5593	320.0000
51.5788	319.0000
51.5982	347.0000
51.6177	300.0000
51.6372	301.0000
51.6566	317.0000
51.6761	290.0000
51.6955	310.0000
51.7150	327.0000
51.7344	284.0000
51.7539	305.0000
51.7734	284.0000
51.7928	305.0000
51.8123	274.0000
51.8317	279.0000
51.8512	335.0000
51.8706	306.0000
51.8901	331.0000
51.9096	304.0000
51.9290	281.0000
51.9485	253.0000
51.9679	289.0000
51.9874	288.0000
52.0068	310.0000
52.0263	319.0000
52.0458	281.0000
52.0652	328.0000
52.0847	291.0000
52.1041	288.0000
52.1236	257.0000
52.1430	280.0000
52.1625	276.0000
52.1819	291.0000
52.2014	277.0000
52.2209	303.0000
52.2403	304.0000
52.2598	279.0000
52.2792	273.0000
52.2987	331.0000
52.3181	296.0000
52.3376	301.0000
52.3571	274.0000
52.3765	275.0000
52.3960	276.0000
52.4154	294.0000
52.4349	265.0000
52.4543	294.0000
52.4738	273.0000
52.4933	317.0000
52.5127	281.0000
52.5322	273.0000
52.5516	282.0000
52.5711	242.0000
52.5905	270.0000
52.6100	265.0000
52.6295	288.0000
52.6489	274.0000
52.6684	307.0000
52.6878	255.0000
52.7073	308.0000
52.7267	297.0000
52.7462	297.0000
52.7657	310.0000
52.7851	303.0000
52.8046	252.0000
52.8240	259.0000
52.8435	276.0000
52.8629	301.0000
52.8824	283.0000
52.9019	287.0000
52.9213	292.0000
52.9408	252.0000
52.9602	299.0000
52.9797	252.0000
52.9991	267.0000
53.0186	265.0000
53.0381	283.0000
53.0575	288.0000
53.0770	289.0000
53.0964	292.0000
53.1159	281.0000
53.1353	283.0000
53.1548	280.0000
53.1743	288.0000
53.1937	299.0000
53.2132	282.0000
53.2326	269.0000
53.2521	277.0000
53.2715	274.0000
53.2910	252.0000
53.3105	271.0000
53.3299	267.0000
53.3494	247.0000
53.3688	279.0000
53.3883	296.0000
53.4077	266.0000
53.4272	272.0000
53.4467	268.0000
53.4661	270.0000
53.4856	300.0000
53.5050	258.0000
53.5245	257.0000
53.5439	293.0000
53.5634	257.0000
53.5829	239.0000
53.6023	279.0000
53.6218	286.0000
53.6412	261.0000
53.6607	278.0000
53.6801	268.0000
53.6996	292.0000
53.7191	289.0000
53.7385	294.0000
53.7580	280.0000
53.7774	286.0000
53.7969	263.0000
53.8163	255.0000
53.8358	272.0000
53.8553	282.0000
53.8747	263.0000
53.8942	266.0000
53.9136	275.0000
53.9331	292.0000
53.9525	278.0000
53.9720	279.0000
53.9915	282.0000
54.0109	261.0000
54.0304	267.0000
54.0498	294.0000
54.0693	280.0000
54.0887	278.0000
54.1082	269.0000
54.1277	271.0000
54.1471	256.0000
54.1666	298.0000
54.1860	280.0000
54.2055	283.0000
54.2249	270.0000
54.2444	263.0000
54.2639	264.0000
54.2833	247.0000
54.3028	278.0000
54.3222	293.0000
54.3417	250.0000
54.3611	306.0000
54.3806	263.0000
54.4001	251.0000
54.4195	308.0000
54.4390	291.0000
54.4584	245.0000
54.4779	275.0000
54.4973	295.0000
54.5168	287.0000
54.5363	277.0000
54.5557	276.0000
54.5752	254.0000
54.5946	268.0000
54.6141	280.0000
54.6335	251.0000
54.6530	272.0000
54.6725	266.0000
54.6919	299.0000
54.7114	297.0000
54.7308	263.0000
54.7503	284.0000
54.7697	277.0000
54.7892	268.0000
54.8087	258.0000
54.8281	257.0000
54.8476	290.0000
54.8670	250.0000
54.8865	254.0000
54.9059	277.0000
54.9254	251.0000
54.9448	278.0000
54.9643	285.0000
54.9838	280.0000
55.0032	285.0000
55.0227	287.0000
55.0421	282.0000
55.0616	270.0000
55.0810	281.0000
55.1005	247.0000
55.1200	255.0000
55.1394	273.0000
55.1589	290.0000
55.1783	263.0000
55.1978	262.0000
55.2172	269.0000
55.2367	267.0000
55.2562	287.0000
55.2756	281.0000
55.2951	262.0000
55.3145	286.0000
55.3340	260.0000
55.3534	289.0000
55.3729	291.0000
55.3924	296.0000
55.4118	274.0000
55.4313	267.0000
55.4507	276.0000
55.4702	269.0000
55.4896	270.0000
55.5091	254.0000
55.5286	284.0000
55.5480	271.0000
55.5675	267.0000
55.5869	285.0000
55.6064	264.0000
55.6258	273.0000
55.6453	270.0000
55.6648	258.0000
55.6842	262.0000
55.7037	266.0000
55.7231	274.0000
55.7426	291.0000
55.7620	254.0000
55.7815	282.0000
55.8010	277.0000
55.8204	261.0000
55.8399	274.0000
55.8593	266.0000
55.8788	246.0000
55.8982	282.0000
55.9177	257.0000
55.9372	268.0000
55.9566	279.0000
55.9761	288.0000
55.9955	262.0000
56.0150	275.0000
56.0344	266.0000
56.0539	280.0000
56.0734	286.0000
56.0928	239.0000
56.1123	310.0000
56.1317	285.0000
56.1512	260.0000
56.1706	306.0000
56.1901	273.0000
56.2096	257.0000
56.2290	262.0000
56.2485	266.0000
56.2679	284.0000
56.2874	309.0000
56.3068	290.0000
56.3263	265.0000
56.3458	264.0000
56.3652	258.0000
56.3847	261.0000
56.4041	265.0000
56.4236	257.0000
56.4430	306.0000
56.4625	265.0000
56.4820	256.0000
56.5014	264.0000
56.5209	254.0000
56.5403	273.0000
56.5598	274.0000
56.5792	300.0000
56.5987	260.0000
56.6182	279.0000
56.6376	255.0000
56.6571	285.0000
56.6765	284.0000
56.6960	272.0000
56.7154	289.0000
56.7349	276.0000
56.7544	272.0000
56.7738	280.0000
56.7933	262.0000
56.8127	266.0000
56.8322	292.0000
56.8516	270.0000
56.8711	281.0000
56.8906	258.0000
56.9100	271.0000
56.9295	298.0000
56.9489	274.0000
56.9684	303.0000
56.9878	258.0000
57.0073	273.0000
57.0268	310.0000
57.0462	275.0000
57.0657	258.0000
57.0851	257.0000
57.1046	268.0000
57.1240	252.0000
57.1435	248.0000
57.1630	263.0000
57.1824	248.0000
57.2019	290.0000
57.2213	282.0000
57.2408	287.0000
57.2602	272.0000
57.2797	277.0000
57.2992	269.0000
57.3186	274.0000
57.3381	254.0000
57.3575	251.0000
57.3770	263.0000
57.3964	260.0000
57.4159	263.0000
57.4354	262.0000
57.4548	273.0000
57.4743	262.0000
57.4937	285.0000
57.5132	281.0000
57.5326	277.0000
57.5521	264.0000
57.5716	262.0000
57.5910	260.0000
57.6105	283.0000
57.6299	278.0000
57.6494	281.0000
57.6688	280.0000
57.6883	302.0000
57.7077	274.0000
57.7272	262.0000
57.7467	266.0000
57.7661	273.0000
57.7856	278.0000
57.8050	272.0000
57.8245	268.0000
57.8439	269.0000
57.8634	266.0000
57.8829	266.0000
57.9023	273.0000
57.9218	262.0000
57.9412	266.0000
57.9607	275.0000
57.9801	243.0000
57.9996	280.0000
58.0191	269.0000
58.0385	269.0000
58.0580	259.0000
58.0774	264.0000
58.0969	293.0000
58.1163	287.0000
58.1358	287.0000
58.1553	303.0000
58.1747	249.0000
58.1942	305.0000
58.2136	279.0000
58.2331	256.0000
58.2525	283.0000
58.2720	253.0000
58.2915	302.0000
58.3109	257.0000
58.3304	257.0000
58.3498	283.0000
58.3693	295.0000
58.3887	263.0000
58.4082	270.0000
58.4277	302.0000
58.4471	250.0000
58.4666	249.0000
58.4860	283.0000
58.5055	287.0000
58.5249	263.0000
58.5444	298.0000
58.5639	266.0000
58.5833	286.0000
58.6028	294.0000
58.6222	256.0000
58.6417	270.0000
58.6611	273.0000
58.6806	290.0000
58.7001	274.0000
58.7195	258.0000
58.7390	238.0000
58.7584	254.0000
58.7779	239.0000
58.7973	270.0000
58.8168	252.0000
58.8363	292.0000
58.8557	267.0000
58.8752	255.0000
58.8946	289.0000
58.9141	304.0000
58.9335	292.0000
58.9530	240.0000
58.9725	278.0000
58.9919	281.0000
59.0114	269.0000
59.0308	257.0000
59.0503	268.0000
59.0697	303.0000
59.0892	279.0000
59.1087	284.0000
59.1281	273.0000
59.1476	271.0000
59.1670	266.0000
59.1865	257.0000
59.2059	276.0000
59.2254	267.0000
59.2449	253.0000
59.2643	291.0000
59.2838	275.0000
59.3032	259.0000
59.3227	271.0000
59.3421	253.0000
59.3616	280.0000
59.3811	278.0000
59.4005	272.0000
59.4200	304.0000
59.4394	256.0000
59.4589	254.0000
59.4783	280.0000
59.4978	253.0000
59.5173	280.0000
59.5367	262.0000
59.5562	262.0000
59.5756	267.0000
59.5951	274.0000
59.6145	270.0000
59.6340	276.0000
59.6535	264.0000
59.6729	258.0000
59.6924	262.0000
59.7118	266.0000
59.7313	252.0000
59.7507	257.0000
59.7702	277.0000
59.7897	282.0000
59.8091	272.0000
59.8286	252.0000
59.8480	295.0000
59.8675	252.0000
59.8869	279.0000
59.9064	259.0000
59.9259	256.0000
59.9453	257.0000
59.9648	276.0000
59.9842	266.0000
60.0037	277.0000
60.0231	266.0000
60.0426	262.0000
60.0621	245.0000
60.0815	253.0000
60.1010	285.0000
60.1204	290.0000
60.1399	265.0000
60.1593	273.0000
60.1788	277.0000
60.1983	295.0000
60.2177	253.0000
60.2372	275.0000
60.2566	281.0000
60.2761	256.0000
60.2955	273.0000
60.3150	257.0000
60.3345	293.0000
60.3539	288.0000
60.3734	258.0000
60.3928	308.0000
60.4123	270.0000
60.4317	296.0000
60.4512	290.0000
60.4706	249.0000
60.4901	251.0000
60.5096	254.0000
60.5290	258.0000
60.5485	273.0000
60.5679	279.0000
60.5874	285.0000
60.6068	284.0000
60.6263	291.0000
60.6458	284.0000
60.6652	307.0000
60.6847	262.0000
60.7041	299.0000
60.7236	286.0000
60.7430	266.0000
60.7625	254.0000
60.7820	274.0000
60.8014	313.0000
60.8209	277.0000
60.8403	256.0000
60.8598	283.0000
60.8792	249.0000
60.8987	301.0000
60.9182	266.0000
60.9376	265.0000
60.9571	282.0000
60.9765	287.0000
60.9960	259.0000
61.0154	257.0000
61.0349	262.0000
61.0544	254.0000
61.0738	264.0000
61.0933	291.0000
61.1127	275.0000
61.1322	266.0000
61.1516	288.0000
61.1711	256.0000
61.1906	251.0000
61.2100	257.0000
61.2295	262.0000
61.2489	273.0000
61.2684	239.0000
61.2878	273.0000
61.3073	264.0000
61.3268	279.0000
61.3462	273.0000
61.3657	274.0000
61.3851	264.0000
61.4046	259.0000
61.4240	263.0000
61.4435	275.0000
61.4630	283.0000
61.4824	284.0000
61.5019	282.0000
61.5213	309.0000
61.5408	242.0000
61.5602	281.0000
61.5797	287.0000
61.5992	264.0000
61.6186	265.0000
61.6381	255.0000
61.6575	260.0000
61.6770	275.0000
61.6964	301.0000
61.7159	282.0000
61.7354	256.0000
61.7548	281.0000
61.7743	310.0000
61.7937	274.0000
61.8132	275.0000
61.8326	276.0000
61.8521	236.0000
61.8716	288.0000
61.8910	271.0000
61.9105	300.0000
61.9299	265.0000
61.9494	257.0000
61.9688	264.0000
61.9883	287.0000
62.0078	265.0000
62.0272	276.0000
62.0467	285.0000
62.0661	289.0000
62.0856	272.0000
62.1050	278.0000
62.1245	268.0000
62.1440	265.0000
62.1634	216.0000
62.1829	238.0000
62.2023	267.0000
62.2218	286.0000
62.2412	252.0000
62.2607	279.0000
62.2802	264.0000
62.2996	276.0000
62.3191	263.0000
62.3385	288.0000
62.3580	248.0000
62.3774	279.0000
62.3969	288.0000
62.4164	294.0000
62.4358	276.0000
62.4553	260.0000
62.4747	293.0000
62.4942	271.0000
62.5136	277.0000
62.5331	267.0000
62.5526	273.0000
62.5720	259.0000
62.5915	276.0000
62.6109	253.0000
62.6304	279.0000
62.6498	255.0000
62.6693	287.0000
62.6888	277.0000
62.7082	285.0000
62.7277	293.0000
62.7471	322.0000
62.7666	271.0000
62.7860	269.0000
62.8055	279.0000
62.8250	293.0000
62.8444	263.0000
62.8639	270.0000
62.8833	303.0000
62.9028	282.0000
62.9222	303.0000
62.9417	279.0000
62.9612	263.0000
62.9806	280.0000
63.0001	274.0000
63.0195	267.0000
63.0390	280.0000
63.0584	275.0000
63.0779	266.0000
63.0974	273.0000
63.1168	273.0000
63.1363	282.0000
63.1557	255.0000
63.1752	274.0000
63.1946	275.0000
63.2141	267.0000
63.2336	288.0000
63.2530	294.0000
63.2725	246.0000
63.2919	291.0000
63.3114	273.0000
63.3308	257.0000
63.3503	254.0000
63.3697	294.0000
63.3892	256.0000
63.4087	254.0000
63.4281	270.0000
63.4476	243.0000
63.4670	249.0000
63.4865	292.0000
63.5059	274.0000
63.5254	259.0000
63.5449	305.0000
63.5643	281.0000
63.5838	274.0000
63.6032	258.0000
63.6227	287.0000
63.6421	259.0000
63.6616	248.0000
63.6811	260.0000
63.7005	278.0000
63.7200	239.0000
63.7394	285.0000
63.7589	280.0000
63.7783	279.0000
63.7978	279.0000
63.8173	276.0000
63.8367	298.0000
63.8562	273.0000
63.8756	267.0000
63.8951	270.0000
63.9145	283.0000
63.9340	253.0000
63.9535	288.0000
63.9729	288.0000
63.9924	279.0000
64.0118	268.0000
64.0313	271.0000
64.0507	239.0000
64.0702	278.0000
64.0897	280.0000
64.1091	257.0000
64.1286	281.0000
64.1480	279.0000
64.1675	285.0000
64.1869	244.0000
64.2064	287.0000
64.2259	256.0000
64.2453	286.0000
64.2648	297.0000
64.2842	246.0000
64.3037	282.0000
64.3231	277.0000
64.3426	272.0000
64.3621	249.0000
64.3815	309.0000
64.4010	292.0000
64.4204	270.0000
64.4399	281.0000
64.4593	253.0000
64.4788	306.0000
64.4983	281.0000
64.5177	273.0000
64.5372	233.0000
64.5566	298.0000
64.5761	262.0000
64.5955	286.0000
64.6150	274.0000
64.6345	281.0000
64.6539	283.0000
64.6734	251.0000
64.6928	245.0000
64.7123	273.0000
64.7317	258.0000
64.7512	290.0000
64.7707	273.0000
64.7901	287.0000
64.8096	271.0000
64.8290	292.0000
64.8485	273.0000
64.8679	315.0000
64.8874	301.0000
64.9069	260.0000
64.9263	254.0000
64.9458	243.0000
64.9652	281.0000
64.9847	283.0000
65.0041	261.0000
65.0236	278.0000
65.0431	271.0000
65.0625	275.0000
65.0820	282.0000
65.1014	277.0000
65.1209	279.0000
65.1403	263.0000
65.1598	280.0000
65.1793	280.0000
65.1987	249.0000
65.2182	248.0000
65.2376	298.0000
65.2571	255.0000
65.2765	269.0000
65.2960	278.0000
65.3155	275.0000
65.3349	258.0000
65.3544	256.0000
65.3738	269.0000
65.3933	247.0000
65.4127	266.0000
65.4322	247.0000
65.4517	277.0000
65.4711	277.0000
65.4906	283.0000
65.5100	254.0000
65.5295	262.0000
65.5489	278.0000
65.5684	277.0000
65.5879	270.0000
65.6073	272.0000
65.6268	256.0000
65.6462	266.0000
65.6657	265.0000
65.6851	284.0000
65.7046	271.0000
65.7241	274.0000
65.7435	265.0000
65.7630	261.0000
65.7824	303.0000
65.8019	280.0000
65.8213	294.0000
65.8408	259.0000
65.8603	281.0000
65.8797	291.0000
65.8992	251.0000
65.9186	268.0000
65.9381	252.0000
65.9575	266.0000
65.9770	254.0000
65.9965	272.0000
66.0159	278.0000
66.0354	247.0000
66.0548	271.0000
66.0743	277.0000
66.0937	262.0000
66.1132	286.0000
66.1326	287.0000
66.1521	269.0000
66.1716	257.0000
66.1910	269.0000
66.2105	283.0000
66.2299	298.0000
66.2494	279.0000
66.2688	277.0000
66.2883	255.0000
66.3078	270.0000
66.3272	251.0000
66.3467	278.0000
66.3661	282.0000
66.3856	265.0000
66.4050	269.0000
66.4245	240.0000
66.4440	286.0000
66.4634	274.0000
66.4829	278.0000
66.5023	292.0000
66.5218	265.0000
66.5412	259.0000
66.5607	289.0000
66.5802	246.0000
66.5996	279.0000
66.6191	289.0000
66.6385	297.0000
66.6580	267.0000
66.6774	292.0000
66.6969	285.0000
66.7164	279.0000
66.7358	272.0000
66.7553	276.0000
66.7747	241.0000
66.7942	272.0000
66.8136	271.0000
66.8331	259.0000
66.8526	273.0000
66.8720	256.0000
66.8915	270.0000
66.9109	273.0000
66.9304	260.0000
66.9498	276.0000
66.9693	261.0000
66.9888	268.0000
67.0082	291.0000
67.0277	286.0000
67.0471	271.0000
67.0666	253.0000
67.0860	243.0000
67.1055	288.0000
67.1250	275.0000
67.1444	270.0000
67.1639	264.0000
67.1833	243.0000
67.2028	257.0000
67.2222	277.0000
67.2417	272.0000
67.2612	290.0000
67.2806	289.0000
67.3001	298.0000
67.3195	261.0000
67.3390	259.0000
67.3584	306.0000
67.3779	284.0000
67.3974	280.0000
67.4168	282.0000
67.4363	294.0000
67.4557	283.0000
67.4752	277.0000
67.4946	280.0000
67.5141	267.0000
67.5336	275.0000
67.5530	275.0000
67.5725	286.0000
67.5919	258.0000
67.6114	290.0000
67.6308	283.0000
67.6503	253.0000
67.6698	287.0000
67.6892	291.0000
67.7087	269.0000
67.7281	288.0000
67.7476	256.0000
67.7670	251.0000
67.7865	274.0000
67.8060	279.0000
67.8254	284.0000
67.8449	259.0000
67.8643	273.0000
67.8838	266.0000
67.9032	235.0000
67.9227	257.0000
67.9422	259.0000
67.9616	287.0000
67.9811	277.0000
68.0005	261.0000
68.0200	273.0000
68.0394	311.0000
68.0589	297.0000
68.0784	242.0000
68.0978	257.0000
68.1173	254.0000
68.1367	280.0000
68.1562	281.0000
68.1756	267.0000
68.1951	285.0000
68.2146	255.0000
68.2340	277.0000
68.2535	287.0000
68.2729	283.0000
68.2924	253.0000
68.3118	284.0000
68.3313	274.0000
68.3508	279.0000
68.3702	269.0000
68.3897	269.0000
68.4091	283.0000
68.4286	276.0000
68.4480	277.0000
68.4675	263.0000
68.4870	247.0000
68.5064	287.0000
68.5259	272.0000
68.5453	241.0000
68.5648	233.0000
68.5842	263.0000
68.6037	294.0000
68.6232	258.0000
68.6426	269.0000
68.6621	238.0000
68.6815	271.0000
68.7010	279.0000
68.7204	273.0000
68.7399	277.0000
68.7594	241.0000
68.7788	277.0000
68.7983	268.0000
68.8177	259.0000
68.8372	296.0000
68.8566	272.0000
68.8761	290.0000
68.8955	296.0000
68.9150	271.0000
68.9345	259.0000
68.9539	241.0000
68.9734	266.0000
68.9928	256.0000
69.0123	278.0000
69.0317	269.0000
69.0512	268.0000
69.0707	240.0000
69.0901	283.0000
69.1096	258.0000
69.1290	297.0000
69.1485	286.0000
69.1679	251.0000
69.1874	250.0000
69.2069	262.0000
69.2263	250.0000
69.2458	281.0000
69.2652	263.0000
69.2847	276.0000
69.3041	263.0000
69.3236	252.0000
69.3431	261.0000
69.3625	279.0000
69.3820	248.0000
69.4014	288.0000
69.4209	275.0000
69.4403	270.0000
69.4598	288.0000
69.4793	274.0000
69.4987	263.0000
69.5182	290.0000
69.5376	262.0000
69.5571	261.0000
69.5765	274.0000
69.5960	278.0000
69.6155	269.0000
69.6349	258.0000
69.6544	282.0000
69.6738	258.0000
69.6933	268.0000
69.7127	273.0000
69.7322	296.0000
69.7517	264.0000
69.7711	265.0000
69.7906	249.0000
69.8100	276.0000
69.8295	275.0000
69.8489	289.0000
69.8684	257.0000
69.8879	257.0000
69.9073	254.0000
69.9268	276.0000
69.9462	309.0000
69.9657	278.0000
69.9851	273.0000
70.0046	276.0000
70.0241	252.0000
70.0435	284.0000
70.0630	286.0000
70.0824	278.0000
70.1019	250.0000
70.1213	283.0000
70.1408	254.0000
70.1603	289.0000
70.1797	313.0000
70.1992	259.0000
70.2186	257.0000
70.2381	284.0000
70.2575	271.0000
70.2770	298.0000
70.2965	275.0000
70.3159	259.0000
70.3354	281.0000
70.3548	256.0000
70.3743	280.0000
70.3937	256.0000
70.4132	249.0000
70.4327	278.0000
70.4521	284.0000
70.4716	285.0000
70.4910	263.0000
70.5105	315.0000
70.5299	266.0000
70.5494	279.0000
70.5689	280.0000
70.5883	274.0000
70.6078	263.0000
70.6272	286.0000
70.6467	282.0000
70.6661	300.0000
70.6856	281.0000
70.7051	300.0000
70.7245	291.0000
70.7440	287.0000
70.7634	259.0000
70.7829	275.0000
70.8023	257.0000
70.8218	271.0000
70.8413	249.0000
70.8607	262.0000
70.8802	305.0000
70.8996	257.0000
70.9191	284.0000
70.9385	264.0000
70.9580	268.0000
70.9775	255.0000
70.9969	282.0000
71.0164	280.0000
71.0358	254.0000
71.0553	276.0000
71.0747	268.0000
71.0942	267.0000
71.1137	290.0000
71.1331	305.0000
71.1526	257.0000
71.1720	258.0000
71.1915	251.0000
71.2109	303.0000
71.2304	268.0000
71.2499	282.0000
71.2693	238.0000
71.2888	251.0000
71.3082	274.0000
71.3277	277.0000
71.3471	257.0000
71.3666	268.0000
71.3861	270.0000
71.4055	268.0000
71.4250	318.0000
71.4444	250.0000
71.4639	251.0000
71.4833	272.0000
71.5028	274.0000
71.5223	274.0000
71.5417	278.0000
71.5612	268.0000
71.5806	301.0000
71.6001	238.0000
71.6195	255.0000
71.6390	247.0000
71.6584	243.0000
71.6779	289.0000
71.6974	302.0000
71.7168	278.0000
71.7363	280.0000
71.7557	287.0000
71.7752	254.0000
71.7946	274.0000
71.8141	277.0000
71.8336	283.0000
71.8530	285.0000
71.8725	261.0000
71.8919	284.0000
71.9114	278.0000
71.9308	245.0000
71.9503	280.0000
71.9698	309.0000
71.9892	265.0000
72.0087	280.0000
72.0281	253.0000
72.0476	282.0000
72.0670	279.0000
72.0865	302.0000
72.1060	315.0000
72.1254	273.0000
72.1449	307.0000
72.1643	267.0000
72.1838	267.0000
72.2032	253.0000
72.2227	289.0000
72.2422	302.0000
72.2616	294.0000
72.2811	260.0000
72.3005	309.0000
72.3200	263.0000
72.3394	284.0000
72.3589	287.0000
72.3784	277.0000
72.3978	280.0000
72.4173	291.0000
72.4367	299.0000
72.4562	273.0000
72.4756	295.0000
72.4951	308.0000
72.5146	303.0000
72.5340	274.0000
72.5535	263.0000
72.5729	303.0000
72.5924	297.0000
72.6118	271.0000
72.6313	265.0000
72.6508	262.0000
72.6702	269.0000
72.6897	259.0000
72.7091	301.0000
72.7286	237.0000
72.7480	254.0000
72.7675	249.0000
72.7870	275.0000
72.8064	242.0000
72.8259	300.0000
72.8453	256.0000
72.8648	278.0000
72.8842	300.0000
72.9037	295.0000
72.9232	305.0000
72.9426	264.0000
72.9621	264.0000
72.9815	292.0000
73.0010	292.0000
73.0204	265.0000
73.0399	304.0000
73.0594	264.0000
73.0788	302.0000
73.0983	280.0000
73.1177	293.0000
73.1372	278.0000
73.1566	311.0000
73.1761	251.0000
73.1956	270.0000
73.2150	272.0000
73.2345	312.0000
73.2539	276.0000
73.2734	275.0000
73.2928	256.0000
73.3123	266.0000
73.3318	271.0000
73.3512	280.0000
73.3707	269.0000
73.3901	273.0000
73.4096	288.0000
73.4290	267.0000
73.4485	258.0000
73.4680	280.0000
73.4874	283.0000
73.5069	291.0000
73.5263	255.0000
73.5458	277.0000
73.5652	280.0000
73.5847	245.0000
73.6042	269.0000
73.6236	303.0000
73.6431	270.0000
73.6625	307.0000
73.6820	257.0000
73.7014	270.0000
73.7209	310.0000
73.7404	264.0000
73.7598	299.0000
73.7793	267.0000
73.7987	290.0000
73.8182	293.0000
73.8376	284.0000
73.8571	303.0000
73.8766	274.0000
73.8960	290.0000
73.9155	275.0000
73.9349	279.0000
73.9544	310.0000
73.9738	309.0000
73.9933	314.0000
74.0128	295.0000
74.0322	287.0000
74.0517	261.0000
74.0711	292.0000
74.0906	298.0000
74.1100	324.0000
74.1295	287.0000
74.1490	264.0000
74.1684	266.0000
74.1879	314.0000
74.2073	294.0000
74.2268	300.0000
74.2462	332.0000
74.2657	313.0000
74.2852	292.0000
74.3046	298.0000
74.3241	323.0000
74.3435	312.0000
74.3630	319.0000
74.3824	313.0000
74.4019	327.0000
74.4213	330.0000
74.4408	344.0000
74.4603	328.0000
74.4797	347.0000
74.4992	316.0000
74.5186	371.0000
74.5381	354.0000
74.5575	397.0000
74.5770	365.0000
74.5965	405.0000
74.6159	391.0000
74.6354	423.0000
74.6548	432.0000
74.6743	472.0000
74.6937	498.0000
74.7132	481.0000
74.7327	537.0000
74.7521	597.0000
74.7716	675.0000
74.7910	694.0000
74.8105	764.0000
74.8299	811.0000
74.8494	892.0000
74.8689	870.0000
74.8883	873.0000
74.9078	905.0000
74.9272	859.0000
74.9467	841.0000
74.9661	808.0000
74.9856	701.0000
75.0051	731.0000
75.0245	686.0000
75.0440	707.0000
75.0634	685.0000
75.0829	668.0000
75.1023	672.0000
75.1218	640.0000
75.1413	637.0000
75.1607	590.0000
75.1802	535.0000
75.1996	514.0000
75.2191	488.0000
75.2385	458.0000
75.2580	417.0000
75.2775	433.0000
75.2969	383.0000
75.3164	363.0000
75.3358	316.0000
75.3553	353.0000
75.3747	365.0000
75.3942	321.0000
75.4137	355.0000
75.4331	336.0000
75.4526	303.0000
75.4720	331.0000
75.4915	296.0000
75.5109	301.0000
75.5304	294.0000
75.5499	295.0000
75.5693	304.0000
75.5888	294.0000
75.6082	326.0000
75.6277	308.0000
75.6471	265.0000
75.6666	291.0000
75.6861	292.0000
75.7055	294.0000
75.7250	298.0000
75.7444	311.0000
75.7639	308.0000
75.7833	269.0000
75.8028	291.0000
75.8223	283.0000
75.8417	272.0000
75.8612	299.0000
75.8806	292.0000
75.9001	294.0000
75.9195	258.0000
75.9390	296.0000
75.9585	291.0000
75.9779	298.0000
75.9974	264.0000
76.0168	257.0000
76.0363	273.0000
76.0557	311.0000
76.0752	278.0000
76.0947	255.0000
76.1141	268.0000
76.1336	292.0000
76.1530	303.0000
76.1725	273.0000
76.1919	282.0000
76.2114	293.0000
76.2309	257.0000
76.2503	283.0000
76.2698	259.0000
76.2892	283.0000
76.3087	299.0000
76.3281	247.0000
76.3476	292.0000
76.3671	288.0000
76.3865	286.0000
76.4060	292.0000
76.4254	287.0000
76.4449	307.0000
76.4643	286.0000
76.4838	271.0000
76.5033	284.0000
76.5227	307.0000
76.5422	261.0000
76.5616	270.0000
76.5811	248.0000
76.6005	274.0000
76.6200	262.0000
76.6395	261.0000
76.6589	251.0000
76.6784	263.0000
76.6978	257.0000
76.7173	275.0000
76.7367	289.0000
76.7562	285.0000
76.7757	283.0000
76.7951	277.0000
76.8146	275.0000
76.8340	264.0000
76.8535	258.0000
76.8729	244.0000
76.8924	253.0000
76.9119	297.0000
76.9313	266.0000
76.9508	282.0000
76.9702	260.0000
76.9897	273.0000
77.0091	271.0000
77.0286	268.0000
77.0481	254.0000
77.0675	290.0000
77.0870	288.0000
77.1064	256.0000
77.1259	283.0000
77.1453	280.0000
77.1648	281.0000
77.1843	247.0000
77.2037	262.0000
77.2232	295.0000
77.2426	269.0000
77.2621	307.0000
77.2815	279.0000
77.3010	266.0000
77.3204	270.0000
77.3399	256.0000
77.3594	308.0000
77.3788	260.0000
77.3983	252.0000
77.4177	266.0000
77.4372	266.0000
77.4566	292.0000
77.4761	285.0000
77.4956	293.0000
77.5150	294.0000
77.5345	278.0000
77.5539	275.0000
77.5734	272.0000
77.5928	248.0000
77.6123	252.0000
77.6318	272.0000
77.6512	270.0000
77.6707	247.0000
77.6901	289.0000
77.7096	279.0000
77.7290	265.0000
77.7485	277.0000
77.7680	271.0000
77.7874	245.0000
77.8069	263.0000
77.8263	263.0000
77.8458	281.0000
77.8652	284.0000
77.8847	300.0000
77.9042	286.0000
77.9236	290.0000
77.9431	255.0000
77.9625	258.0000
77.9820	310.0000
78.0014	299.0000
78.0209	275.0000
78.0404	300.0000
78.0598	309.0000
78.0793	249.0000
78.0987	289.0000
78.1182	281.0000
78.1376	274.0000
78.1571	268.0000
78.1766	296.0000
78.1960	280.0000
78.2155	267.0000
78.2349	256.0000
78.2544	301.0000
78.2738	248.0000
78.2933	262.0000
78.3128	262.0000
78.3322	250.0000
78.3517	263.0000
78.3711	264.0000
78.3906	284.0000
78.4100	297.0000
78.4295	283.0000
78.4490	260.0000
78.4684	292.0000
78.4879	272.0000
78.5073	260.0000
78.5268	281.0000
78.5462	273.0000
78.5657	309.0000
78.5852	268.0000
78.6046	263.0000
78.6241	268.0000
78.6435	270.0000
78.6630	280.0000
78.6824	286.0000
78.7019	270.0000
78.7214	278.0000
78.7408	309.0000
78.7603	291.0000
78.7797	260.0000
78.7992	277.0000
78.8186	272.0000
78.8381	266.0000
78.8576	273.0000
78.8770	282.0000
78.8965	282.0000
78.9159	241.0000
78.9354	255.0000
78.9548	263.0000
78.9743	276.0000
78.9938	307.0000
79.0132	293.0000
79.0327	269.0000
79.0521	267.0000
79.0716	253.0000
79.0910	275.0000
79.1105	283.0000
79.1300	256.0000
79.1494	279.0000
79.1689	298.0000
79.1883	246.0000
79.2078	303.0000
79.2272	244.0000
79.2467	276.0000
79.2662	271.0000
79.2856	243.0000
79.3051	281.0000
79.3245	264.0000
79.3440	294.0000
79.3634	295.0000
79.3829	304.0000
79.4024	286.0000
79.4218	259.0000
79.4413	303.0000
79.4607	263.0000
79.4802	287.0000
79.4996	276.0000
79.5191	275.0000
79.5386	265.0000
79.5580	303.0000
79.5775	303.0000
79.5969	265.0000
79.6164	262.0000
79.6358	264.0000
79.6553	277.0000
79.6748	241.0000
79.6942	257.0000
79.7137	265.0000
79.7331	256.0000
79.7526	280.0000
79.7720	277.0000
79.7915	288.0000
79.8110	290.0000
79.8304	266.0000
79.8499	264.0000
79.8693	274.0000
79.8888	293.0000
79.9082	323.0000
79.9277	248.0000
79.9472	277.0000
79.9666	264.0000
79.9861	251.0000
80.0055	257.0000
80.0250	269.0000
80.0444	271.0000
80.0639	279.0000
80.0833	278.0000
80.1028	253.0000
80.1223	274.0000
80.1417	269.0000
80.1612	263.0000
80.1806	228.0000
80.2001	279.0000
80.2195	254.0000
80.2390	258.0000
80.2585	267.0000
80.2779	287.0000
80.2974	239.0000
80.3168	322.0000
80.3363	270.0000
80.3557	289.0000
80.3752	286.0000
80.3947	282.0000
80.4141	264.0000
80.4336	250.0000
80.4530	272.0000
80.4725	270.0000
80.4919	289.0000
80.5114	288.0000
80.5309	264.0000
80.5503	278.0000
80.5698	280.0000
80.5892	272.0000
80.6087	287.0000
80.6281	279.0000
80.6476	284.0000
80.6671	288.0000
80.6865	252.0000
80.7060	311.0000
80.7254	285.0000
80.7449	274.0000
80.7643	272.0000
80.7838	277.0000
80.8033	291.0000
80.8227	317.0000
80.8422	274.0000
80.8616	272.0000
80.8811	276.0000
80.9005	284.0000
80.9200	273.0000
80.9395	308.0000
80.9589	288.0000
80.9784	292.0000
80.9978	253.0000
81.0173	263.0000
81.0367	272.0000
81.0562	263.0000
81.0757	293.0000
81.0951	276.0000
81.1146	299.0000
81.1340	298.0000
81.1535	293.0000
81.1729	302.0000
81.1924	288.0000
81.2119	279.0000
81.2313	260.0000
81.2508	271.0000
81.2702	274.0000
81.2897	271.0000
81.3091	252.0000
81.3286	278.0000
81.3481	287.0000
81.3675	288.0000
81.3870	320.0000
81.4064	316.0000
81.4259	268.0000
81.4453	276.0000
81.4648	243.0000
81.4843	291.0000
81.5037	255.0000
81.5232	292.0000
81.5426	269.0000
81.5621	268.0000
81.5815	284.0000
81.6010	288.0000
81.6205	256.0000
81.6399	293.0000
81.6594	267.0000
81.6788	262.0000
81.6983	258.0000
81.7177	279.0000
81.7372	263.0000
81.7567	266.0000
81.7761	276.0000
81.7956	265.0000
81.8150	274.0000
81.8345	275.0000
81.8539	260.0000
81.8734	277.0000
81.8929	284.0000
81.9123	289.0000
81.9318	290.0000
81.9512	271.0000
81.9707	296.0000
81.9901	244.0000
82.0096	278.0000
82.0291	267.0000
82.0485	290.0000
82.0680	268.0000
82.0874	280.0000
82.1069	273.0000
82.1263	307.0000
82.1458	267.0000
82.1653	257.0000
82.1847	291.0000
82.2042	297.0000
82.2236	275.0000
82.2431	255.0000
82.2625	261.0000
82.2820	226.0000
82.3015	272.0000
82.3209	283.0000
82.3404	283.0000
82.3598	253.0000
82.3793	272.0000
82.3987	282.0000
82.4182	288.0000
82.4377	281.0000
82.4571	271.0000
82.4766	289.0000
82.4960	291.0000
82.5155	266.0000
82.5349	289.0000
82.5544	276.0000
82.5739	268.0000
82.5933	258.0000
82.6128	252.0000
82.6322	286.0000
82.6517	295.0000
82.6711	263.0000
82.6906	274.0000
82.7101	305.0000
82.7295	275.0000
82.7490	292.0000
82.7684	270.0000
82.7879	265.0000
82.8073	281.0000
82.8268	310.0000
82.8462	281.0000
82.8657	253.0000
82.8852	266.0000
82.9046	259.0000
82.9241	274.0000
82.9435	251.0000
82.9630	259.0000
82.9824	284.0000
83.0019	265.0000
83.0214	275.0000
83.0408	305.0000
83.0603	280.0000
83.0797	276.0000
83.0992	264.0000
83.1186	305.0000
83.1381	272.0000
83.1576	269.0000
83.1770	278.0000
83.1965	289.0000
83.2159	262.0000
83.2354	270.0000
83.2548	268.0000
83.2743	261.0000
83.2938	272.0000
83.3132	260.0000
83.3327	278.0000
83.3521	286.0000
83.3716	291.0000
83.3910	266.0000
83.4105	282.0000
83.4300	309.0000
83.4494	310.0000
83.4689	285.0000
83.4883	272.0000
83.5078	259.0000
83.5272	274.0000
83.5467	290.0000
83.5662	245.0000
83.5856	257.0000
83.6051	296.0000
83.6245	272.0000
83.6440	266.0000
83.6634	289.0000
83.6829	280.0000
83.7024	272.0000
83.7218	286.0000
83.7413	267.0000
83.7607	289.0000
83.7802	288.0000
83.7996	260.0000
83.8191	265.0000
83.8386	270.0000
83.8580	265.0000
83.8775	297.0000
83.8969	264.0000
83.9164	247.0000
83.9358	280.0000
83.9553	244.0000
83.9748	291.0000
83.9942	287.0000
84.0137	276.0000
84.0331	283.0000
84.0526	262.0000
84.0720	315.0000
84.0915	247.0000
84.1110	280.0000
84.1304	273.0000
84.1499	275.0000
84.1693	266.0000
84.1888	321.0000
84.2082	269.0000
84.2277	282.0000
84.2472	283.0000
84.2666	260.0000
84.2861	294.0000
84.3055	271.0000
84.3250	244.0000
84.3444	278.0000
84.3639	264.0000
84.3834	288.0000
84.4028	290.0000
84.4223	280.0000
84.4417	306.0000
84.4612	252.0000
84.4806	277.0000
84.5001	263.0000
84.5196	313.0000
84.5390	269.0000
84.5585	252.0000
84.5779	312.0000
84.5974	309.0000
84.6168	261.0000
84.6363	256.0000
84.6558	282.0000
84.6752	277.0000
84.6947	277.0000
84.7141	287.0000
84.7336	284.0000
84.7530	288.0000
84.7725	293.0000
84.7920	262.0000
84.8114	276.0000
84.8309	269.0000
84.8503	262.0000
84.8698	281.0000
84.8892	290.0000
84.9087	299.0000
84.9282	262.0000
84.9476	270.0000
84.9671	261.0000
84.9865	274.0000
85.0060	257.0000
85.0254	278.0000
85.0449	296.0000
85.0644	287.0000
85.0838	273.0000
85.1033	248.0000
85.1227	262.0000
85.1422	288.0000
85.1616	278.0000
85.1811	273.0000
85.2006	269.0000
85.2200	255.0000
85.2395	284.0000
85.2589	299.0000
85.2784	274.0000
85.2978	295.0000
85.3173	256.0000
85.3368	259.0000
85.3562	260.0000
85.3757	271.0000
85.3951	281.0000
85.4146	281.0000
85.4340	270.0000
85.4535	288.0000
85.4730	263.0000
85.4924	259.0000
85.5119	261.0000
85.5313	265.0000
85.5508	288.0000
85.5702	283.0000
85.5897	271.0000
85.6091	269.0000
85.6286	260.0000
85.6481	295.0000
85.6675	257.0000
85.6870	308.0000
85.7064	267.0000
85.7259	259.0000
85.7453	257.0000
85.7648	237.0000
85.7843	266.0000
85.8037	258.0000
85.8232	273.0000
85.8426	273.0000
85.8621	272.0000
85.8815	299.0000
85.9010	260.0000
85.9205	284.0000
85.9399	279.0000
85.9594	271.0000
85.9788	273.0000
85.9983	275.0000
86.0177	287.0000
86.0372	237.0000
86.0567	275.0000
86.0761	303.0000
86.0956	279.0000
86.1150	276.0000
86.1345	246.0000
86.1539	291.0000
86.1734	285.0000
86.1929	262.0000
86.2123	295.0000
86.2318	259.0000
86.2512	296.0000
86.2707	259.0000
86.2901	284.0000
86.3096	270.0000
86.3291	280.0000
86.3485	274.0000
86.3680	278.0000
86.3874	283.0000
86.4069	319.0000
86.4263	258.0000
86.4458	263.0000
86.4653	256.0000
86.4847	274.0000
86.5042	251.0000
86.5236	272.0000
86.5431	270.0000
86.5625	272.0000
86.5820	296.0000
86.6015	301.0000
86.6209	281.0000
86.6404	275.0000
86.6598	305.0000
86.6793	290.0000
86.6987	272.0000
86.7182	266.0000
86.7377	265.0000
86.7571	294.0000
86.7766	271.0000
86.7960	282.0000
86.8155	254.0000
86.8349	293.0000
86.8544	286.0000
86.8739	295.0000
86.8933	271.0000
86.9128	266.0000
86.9322	258.0000
86.9517	250.0000
86.9711	305.0000
86.9906	286.0000
87.0101	276.0000
87.0295	277.0000
87.0490	289.0000
87.0684	247.0000
87.0879	259.0000
87.1073	269.0000
87.1268	267.0000
87.1463	275.0000
87.1657	291.0000
87.1852	278.0000
87.2046	267.0000
87.2241	258.0000
87.2435	283.0000
87.2630	269.0000
87.2825	289.0000
87.3019	277.0000
87.3214	262.0000
87.3408	255.0000
87.3603	285.0000
87.3797	283.0000
87.3992	277.0000
87.4187	279.0000
87.4381	261.0000
87.4576	284.0000
87.4770	282.0000
87.4965	242.0000
87.5159	286.0000
87.5354	272.0000
87.5549	301.0000
87.5743	277.0000
87.5938	276.0000
87.6132	259.0000
87.6327	270.0000
87.6521	283.0000
87.6716	254.0000
87.6911	273.0000
87.7105	293.0000
87.7300	291.0000
87.7494	281.0000
87.7689	294.0000
87.7883	280.0000
87.8078	277.0000
87.8273	313.0000
87.8467	287.0000
87.8662	293.0000
87.8856	283.0000
87.9051	276.0000
87.9245	264.0000
87.9440	265.0000
87.9635	295.0000
87.9829	277.0000
88.0024	262.0000
88.0218	271.0000
88.0413	303.0000
88.0607	269.0000
88.0802	277.0000
88.0997	297.0000
88.1191	297.0000
88.1386	259.0000
88.1580	272.0000
88.1775	293.0000
88.1969	289.0000
88.2164	288.0000
88.2359	269.0000
88.2553	292.0000
88.2748	292.0000
88.2942	280.0000
88.3137	254.0000
88.3331	316.0000
88.3526	291.0000
88.3720	273.0000
88.3915	265.0000
88.4110	305.0000
88.4304	276.0000
88.4499	298.0000
88.4693	275.0000
88.4888	260.0000
88.5082	280.0000
88.5277	270.0000
88.5472	264.0000
88.5666	281.0000
88.5861	265.0000
88.6055	273.0000
88.6250	282.0000
88.6444	239.0000
88.6639	261.0000
88.6834	282.0000
88.7028	257.0000
88.7223	288.0000
88.7417	277.0000
88.7612	309.0000
88.7806	304.0000
88.8001	300.0000
88.8196	300.0000
88.8390	267.0000
88.8585	286.0000
88.8779	288.0000
88.8974	301.0000
88.9168	296.0000
88.9363	271.0000
88.9558	284.0000
88.9752	281.0000
88.9947	277.0000
89.0141	276.0000
89.0336	279.0000
89.0530	270.0000
89.0725	269.0000
89.0920	269.0000
89.1114	289.0000
89.1309	241.0000
89.1503	275.0000
89.1698	322.0000
89.1892	270.0000
89.2087	261.0000
89.2282	259.0000
89.2476	282.0000
89.2671	278.0000
89.2865	309.0000
89.3060	261.0000
89.3254	331.0000
89.3449	277.0000
89.3644	262.0000
89.3838	262.0000
89.4033	299.0000
89.4227	298.0000
89.4422	270.0000
89.4616	291.0000
89.4811	286.0000
89.5006	257.0000
89.5200	276.0000
89.5395	282.0000
89.5589	290.0000
89.5784	315.0000
89.5978	299.0000
89.6173	274.0000
89.6368	264.0000
89.6562	317.0000
89.6757	317.0000
89.6951	297.0000
89.7146	272.0000
89.7340	303.0000
89.7535	289.0000
89.7730	298.0000
89.7924	283.0000
89.8119	274.0000
89.8313	255.0000
89.8508	299.0000
89.8702	299.0000
89.8897	280.0000
89.9092	316.0000
89.9286	317.0000
89.9481	274.0000
89.9675	298.0000
89.9870	298.0000
90.0064	295.0000
90.0259	294.0000
90.0454	307.0000
90.0648	279.0000
90.0843	303.0000
90.1037	320.0000
90.1232	297.0000
90.1426	300.0000
90.1621	309.0000
90.1816	343.0000
90.2010	325.0000
90.2205	317.0000
90.2399	298.0000
90.2594	312.0000
90.2788	327.0000
90.2983	310.0000
90.3178	314.0000
90.3372	297.0000
90.3567	335.0000
90.3761	338.0000
90.3956	321.0000
90.4150	329.0000
90.4345	300.0000
90.4540	363.0000
90.4734	331.0000
90.4929	350.0000
90.5123	364.0000
90.5318	298.0000
90.5512	347.0000
90.5707	326.0000
90.5902	344.0000
90.6096	323.0000
90.6291	350.0000
90.6485	358.0000
90.6680	351.0000
90.6874	409.0000
90.7069	353.0000
90.7264	358.0000
90.7458	361.0000
90.7653	377.0000
90.7847	366.0000
90.8042	362.0000
90.8236	350.0000
90.8431	397.0000
90.8626	389.0000
90.8820	370.0000
90.9015	393.0000
90.9209	345.0000
90.9404	372.0000
90.9598	398.0000
90.9793	367.0000
90.9988	353.0000
91.0182	372.0000
91.0377	391.0000
91.0571	373.0000
91.0766	347.0000
91.0960	373.0000
91.1155	384.0000
91.1350	362.0000
91.1544	338.0000
91.1739	362.0000
91.1933	350.0000
91.2128	314.0000
91.2322	328.0000
91.2517	336.0000
91.2711	326.0000
91.2906	333.0000
91.3101	322.0000
91.3295	333.0000
91.3490	332.0000
91.3684	305.0000
91.3879	303.0000
91.4073	329.0000
91.4268	325.0000
91.4463	312.0000
91.4657	300.0000
91.4852	350.0000
91.5046	290.0000
91.5241	324.0000
91.5435	302.0000
91.5630	296.0000
91.5825	323.0000
91.6019	270.0000
91.6214	299.0000
91.6408	334.0000
91.6603	290.0000
91.6797	307.0000
91.6992	306.0000
91.7187	291.0000
91.7381	304.0000
91.7576	353.0000
91.7770	335.0000
91.7965	307.0000
91.8159	326.0000
91.8354	309.0000
91.8549	313.0000
91.8743	264.0000
91.8938	300.0000
91.9132	287.0000
91.9327	289.0000
91.9521	278.0000
91.9716	273.0000
91.9911	293.0000
92.0105	289.0000
92.0300	306.0000
92.0494	272.0000
92.0689	289.0000
92.0883	312.0000
92.1078	281.0000
92.1273	268.0000
92.1467	322.0000
92.1662	292.0000
92.1856	284.0000
92.2051	277.0000
92.2245	284.0000
92.2440	329.0000
92.2635	260.0000
92.2829	277.0000
92.3024	314.0000
92.3218	303.0000
92.3413	272.0000
92.3607	275.0000
92.3802	278.0000
92.3997	265.0000
92.4191	273.0000
92.4386	287.0000
92.4580	261.0000
92.4775	256.0000
92.4969	288.0000
92.5164	266.0000
92.5359	264.0000
92.5553	273.0000
92.5748	291.0000
92.5942	303.0000
92.6137	286.0000
92.6331	289.0000
92.6526	293.0000
92.6721	296.0000
92.6915	270.0000
92.7110	334.0000
92.7304	295.0000
92.7499	315.0000
92.7693	289.0000
92.7888	286.0000
92.8083	270.0000
92.8277	285.0000
92.8472	256.0000
92.8666	305.0000
92.8861	289.0000
92.9055	283.0000
92.9250	285.0000
92.9445	269.0000
92.9639	284.0000
92.9834	295.0000
93.0028	303.0000
93.0223	282.0000
93.0417	268.0000
93.0612	303.0000
93.0807	287.0000
93.1001	279.0000
93.1196	275.0000
93.1390	291.0000
93.1585	275.0000
93.1779	304.0000
93.1974	280.0000
93.2169	295.0000
93.2363	283.0000
93.2558	278.0000
93.2752	295.0000
93.2947	281.0000
93.3141	297.0000
93.3336	279.0000
93.3531	300.0000
93.3725	273.0000
93.3920	275.0000
93.4114	283.0000
93.4309	301.0000
93.4503	273.0000
93.4698	276.0000
93.4893	268.0000
93.5087	299.0000
93.5282	286.0000
93.5476	288.0000
93.5671	299.0000
93.5865	289.0000
93.6060	270.0000
93.6255	294.0000
93.6449	267.0000
93.6644	281.0000
93.6838	288.0000
93.7033	289.0000
93.7227	295.0000
93.7422	287.0000
93.7617	300.0000
93.7811	315.0000
93.8006	275.0000
93.8200	268.0000
93.8395	284.0000
93.8589	307.0000
93.8784	310.0000
93.8979	303.0000
93.9173	249.0000
93.9368	284.0000
93.9562	281.0000
93.9757	274.0000
93.9951	309.0000
94.0146	324.0000
94.0340	245.0000
94.0535	268.0000
94.0730	282.0000
94.0924	283.0000
94.1119	287.0000
94.1313	285.0000
94.1508	281.0000
94.1702	275.0000
94.1897	255.0000
94.2092	276.0000
94.2286	274.0000
94.2481	327.0000
94.2675	304.0000
94.2870	264.0000
94.3064	305.0000
94.3259	291.0000
94.3454	287.0000
94.3648	291.0000
94.3843	295.0000
94.4037	278.0000
94.4232	300.0000
94.4426	272.0000
94.4621	315.0000
94.4816	290.0000
94.5010	286.0000
94.5205	273.0000
94.5399	307.0000
94.5594	311.0000
94.5788	291.0000
94.5983	283.0000
94.6178	281.0000
94.6372	278.0000
94.6567	312.0000
94.6761	318.0000
94.6956	247.0000
94.7150	265.0000
94.7345	275.0000
94.7540	284.0000
94.7734	287.0000
94.7929	273.0000
94.8123	275.0000
94.8318	256.0000
94.8512	277.0000
94.8707	299.0000
94.8902	281.0000
94.9096	276.0000
94.9291	272.0000
94.9485	261.0000
94.9680	280.0000
94.9874	268.0000
95.0069	258.0000
95.0264	278.0000
95.0458	292.0000
95.0653	295.0000
95.0847	274.0000
95.1042	272.0000
95.1236	297.0000
95.1431	294.0000
95.1626	293.0000
95.1820	293.0000
95.2015	269.0000
95.2209	280.0000
95.2404	310.0000
95.2598	265.0000
95.2793	301.0000
95.2988	272.0000
95.3182	263.0000
95.3377	295.0000
95.3571	295.0000
95.3766	312.0000
95.3960	277.0000
95.4155	292.0000
95.4350	285.0000
95.4544	303.0000
95.4739	298.0000
95.4933	261.0000
95.5128	284.0000
95.5322	316.0000
95.5517	280.0000
95.5712	306.0000
95.5906	285.0000
95.6101	335.0000
95.6295	270.0000
95.6490	311.0000
95.6684	296.0000
95.6879	276.0000
95.7074	268.0000
95.7268	295.0000
95.7463	304.0000
95.7657	309.0000
95.7852	274.0000
95.8046	300.0000
95.8241	283.0000
95.8436	306.0000
95.8630	265.0000
95.8825	314.0000
95.9019	308.0000
95.9214	296.0000
95.9408	285.0000
95.9603	289.0000
95.9798	301.0000
95.9992	311.0000
96.0187	313.0000
96.0381	293.0000
96.0576	310.0000
96.0770	326.0000
96.0965	278.0000
96.1160	303.0000
96.1354	308.0000
96.1549	288.0000
96.1743	307.0000
96.1938	281.0000
96.2132	313.0000
96.2327	318.0000
96.2522	287.0000
96.2716	316.0000
96.2911	279.0000
96.3105	306.0000
96.3300	299.0000
96.3494	292.0000
96.3689	286.0000
96.3884	282.0000
96.4078	300.0000
96.4273	272.0000
96.4467	291.0000
96.4662	319.0000
96.4856	318.0000
96.5051	313.0000
96.5246	309.0000
96.5440	302.0000
96.5635	300.0000
96.5829	350.0000
96.6024	274.0000
96.6218	285.0000
96.6413	292.0000
96.6608	290.0000
96.6802	278.0000
96.6997	306.0000
96.7191	297.0000
96.7386	292.0000
96.7580	319.0000
96.7775	266.0000
96.7969	291.0000
96.8164	290.0000
96.8359	315.0000
96.8553	315.0000
96.8748	263.0000
96.8942	264.0000
96.9137	269.0000
96.9331	285.0000
96.9526	293.0000
96.9721	287.0000
96.9915	277.0000
97.0110	316.0000
97.0304	303.0000
97.0499	273.0000
97.0693	279.0000
97.0888	263.0000
97.1083	318.0000
97.1277	273.0000
97.1472	257.0000
97.1666	274.0000
97.1861	289.0000
97.2055	311.0000
97.2250	274.0000
97.2445	280.0000
97.2639	286.0000
97.2834	299.0000
97.3028	290.0000
97.3223	247.0000
97.3417	252.0000
97.3612	270.0000
97.3807	269.0000
97.4001	281.0000
97.4196	305.0000
97.4390	306.0000
97.4585	306.0000
97.4779	258.0000
97.4974	284.0000
97.5169	288.0000
97.5363	294.0000
97.5558	284.0000
97.5752	295.0000
97.5947	277.0000
97.6141	285.0000
97.6336	276.0000
97.6531	281.0000
97.6725	286.0000
97.6920	297.0000
97.7114	285.0000
97.7309	300.0000
97.7503	290.0000
97.7698	303.0000
97.7893	285.0000
97.8087	247.0000
97.8282	275.0000
97.8476	276.0000
97.8671	267.0000
97.8865	267.0000
97.9060	284.0000
97.9255	319.0000
97.9449	315.0000
97.9644	314.0000
97.9838	287.0000
98.0033	281.0000
98.0227	290.0000
98.0422	310.0000
98.0617	269.0000
98.0811	284.0000
98.1006	279.0000
98.1200	273.0000
98.1395	323.0000
98.1589	331.0000
98.1784	288.0000
98.1979	298.0000
98.2173	296.0000
98.2368	263.0000
98.2562	255.0000
98.2757	299.0000
98.2951	303.0000
98.3146	286.0000
98.3341	302.0000
98.3535	252.0000
98.3730	302.0000
98.3924	277.0000
98.4119	281.0000
98.4313	291.0000
98.4508	289.0000
98.4703	293.0000
98.4897	305.0000
98.5092	285.0000
98.5286	269.0000
98.5481	272.0000
98.5675	290.0000
98.5870	280.0000
98.6065	286.0000
98.6259	290.0000
98.6454	297.0000
98.6648	303.0000
98.6843	282.0000
98.7037	268.0000
98.7232	306.0000
98.7427	246.0000
98.7621	267.0000
98.7816	289.0000
98.8010	277.0000
98.8205	305.0000
98.8399	282.0000
98.8594	290.0000
98.8789	271.0000
98.8983	275.0000
98.9178	274.0000
98.9372	258.0000
98.9567	296.0000
98.9761	293.0000
98.9956	267.0000
99.0151	282.0000
99.0345	272.0000
99.0540	291.0000
99.0734	297.0000
99.0929	269.0000
99.1123	290.0000
99.1318	273.0000
99.1513	274.0000
99.1707	295.0000
99.1902	274.0000
99.2096	270.0000
99.2291	265.0000
99.2485	269.0000
99.2680	283.0000
99.2875	311.0000
99.3069	301.0000
99.3264	283.0000
99.3458	254.0000
99.3653	279.0000
99.3847	277.0000
99.4042	314.0000
99.4237	262.0000
99.4431	290.0000
99.4626	284.0000
99.4820	273.0000
99.5015	274.0000
99.5209	290.0000
99.5404	317.0000
99.5598	287.0000
99.5793	275.0000
99.5988	285.0000
99.6182	258.0000
99.6377	294.0000
99.6571	301.0000
99.6766	258.0000
99.6960	276.0000
99.7155	292.0000
99.7350	284.0000
99.7544	303.0000
99.7739	292.0000
99.7933	274.0000
99.8128	293.0000
99.8322	297.0000
99.8517	325.0000
99.8712	279.0000
99.8906	277.0000
99.9101	302.0000
99.9295	299.0000
99.9490	288.0000
99.9684	296.0000
99.9879	290.0000
100.0074	274.0000
