30.0009	282.0000
30.0204	245.0000
30.0398	283.0000
30.0593	249.0000
30.0787	251.0000
30.0982	263.0000
30.1177	252.0000
30.1371	256.0000
30.1566	273.0000
30.1760	240.0000
30.1955	257.0000
30.2149	257.0000
30.2344	263.0000
30.2539	273.0000
30.2733	255.0000
30.2928	273.0000
30.3122	266.0000
30.3317	262.0000
30.3511	239.0000
30.3706	236.0000
30.3901	238.0000
30.4095	256.0000
30.4290	280.0000
30.4484	257.0000
30.4679	257.0000
30.4873	240.0000
30.5068	248.0000
30.5263	253.0000
30.5457	277.0000
30.5652	261.0000
30.5846	251.0000
30.6041	266.0000
30.6235	263.0000
30.6430	237.0000
30.6625	253.0000
30.6819	243.0000
30.7014	269.0000
30.7208	269.0000
30.7403	240.0000
30.7597	259.0000
30.7792	257.0000
30.7987	243.0000
30.8181	240.0000
30.8376	224.0000
30.8570	214.0000
30.8765	254.0000
30.8959	257.0000
30.9154	275.0000
30.9349	251.0000
30.9543	244.0000
30.9738	262.0000
30.9932	244.0000
31.0127	248.0000
31.0321	250.0000
31.0516	235.0000
31.0711	260.0000
31.0905	248.0000
31.1100	240.0000
31.1294	237.0000
31.1489	264.0000
31.1683	239.0000
31.1878	271.0000
31.2073	244.0000
31.2267	259.0000
31.2462	229.0000
31.2656	261.0000
31.2851	252.0000
31.3045	268.0000
31.3240	253.0000
31.3435	285.0000
31.3629	237.0000
31.3824	232.0000
31.4018	232.0000
31.4213	231.0000
31.4407	233.0000
31.4602	248.0000
31.4797	229.0000
31.4991	249.0000
31.5186	224.0000
31.5380	252.0000
31.5575	260.0000
31.5769	270.0000
31.5964	238.0000
31.6159	240.0000
31.6353	231.0000
31.6548	224.0000
31.6742	244.0000
31.6937	215.0000
31.7131	264.0000
31.7326	249.0000
31.7521	224.0000
31.7715	247.0000
31.7910	223.0000
31.8104	217.0000
31.8299	266.0000
31.8493	250.0000
31.8688	247.0000
31.8883	235.0000
31.9077	246.0000
31.9272	240.0000
31.9466	259.0000
31.9661	244.0000
31.9855	228.0000
32.0050	255.0000
32.0245	242.0000
32.0439	237.0000
32.0634	236.0000
32.0828	244.0000
32.1023	236.0000
32.1217	238.0000
32.1412	248.0000
32.1607	249.0000
32.1801	252.0000
32.1996	236.0000
32.2190	240.0000
32.2385	249.0000
32.2579	212.0000
32.2774	237.0000
32.2969	241.0000
32.3163	237.0000
32.3358	230.0000
32.3552	246.0000
32.3747	232.0000
32.3941	224.0000
32.4136	250.0000
32.4331	275.0000
32.4525	243.0000
32.4720	238.0000
32.4914	250.0000
32.5109	223.0000
32.5303	253.0000
32.5498	216.0000
32.5693	254.0000
32.5887	230.0000
32.6082	213.0000
32.6276	223.0000
32.6471	230.0000
32.6665	214.0000
32.6860	224.0000
32.7055	222.0000
32.7249	222.0000
32.7444	223.0000
32.7638	240.0000
32.7833	218.0000
32.8027	244.0000
32.8222	246.0000
32.8416	227.0000
32.8611	232.0000
32.8806	243.0000
32.9000	231.0000
32.9195	222.0000
32.9389	260.0000
32.9584	206.0000
32.9778	217.0000
32.9973	234.0000
33.0168	232.0000
33.0362	256.0000
33.0557	232.0000
33.0751	213.0000
33.0946	249.0000
33.1140	231.0000
33.1335	226.0000
33.1530	251.0000
33.1724	219.0000
33.1919	246.0000
33.2113	210.0000
33.2308	272.0000
33.2502	248.0000
33.2697	220.0000
33.2892	240.0000
33.3086	260.0000
33.3281	233.0000
33.3475	224.0000
33.3670	254.0000
33.3864	245.0000
33.4059	233.0000
33.4254	234.0000
33.4448	225.0000
33.4643	259.0000
33.4837	233.0000
33.5032	226.0000
33.5226	253.0000
33.5421	237.0000
33.5616	230.0000
33.5810	235.0000
33.6005	222.0000
33.6199	228.0000
33.6394	233.0000
33.6588	246.0000
33.6783	230.0000
33.6978	224.0000
33.7172	214.0000
33.7367	227.0000
33.7561	278.0000
33.7756	245.0000
33.7950	231.0000
33.8145	209.0000
33.8340	249.0000
33.8534	235.0000
33.8729	256.0000
33.8923	257.0000
33.9118	247.0000
33.9312	240.0000
33.9507	228.0000
33.9702	222.0000
33.9896	228.0000
34.0091	202.0000
34.0285	209.0000
34.0480	230.0000
34.0674	257.0000
34.0869	240.0000
34.1064	246.0000
34.1258	240.0000
34.1453	222.0000
34.1647	230.0000
34.1842	220.0000
34.2036	235.0000
34.2231	204.0000
34.2426	219.0000
34.2620	232.0000
34.2815	215.0000
34.3009	248.0000
34.3204	222.0000
34.3398	209.0000
34.3593	258.0000
34.3788	224.0000
34.3982	206.0000
34.4177	246.0000
34.4371	257.0000
34.4566	231.0000
34.4760	232.0000
34.4955	238.0000
34.5150	229.0000
34.5344	199.0000
34.5539	230.0000
34.5733	246.0000
34.5928	233.0000
34.6122	241.0000
34.6317	217.0000
34.6512	224.0000
34.6706	226.0000
34.6901	234.0000
34.7095	217.0000
34.7290	233.0000
34.7484	252.0000
34.7679	209.0000
34.7874	210.0000
34.8068	256.0000
34.8263	237.0000
34.8457	246.0000
34.8652	241.0000
34.8846	215.0000
34.9041	255.0000
34.9236	249.0000
34.9430	216.0000
34.9625	240.0000
34.9819	229.0000
35.0014	218.0000
35.0208	220.0000
35.0403	265.0000
35.0598	261.0000
35.0792	246.0000
35.0987	231.0000
35.1181	232.0000
35.1376	225.0000
35.1570	239.0000
35.1765	216.0000
35.1960	223.0000
35.2154	208.0000
35.2349	235.0000
35.2543	251.0000
35.2738	226.0000
35.2932	234.0000
35.3127	213.0000
35.3322	212.0000
35.3516	246.0000
35.3711	237.0000
35.3905	209.0000
35.4100	241.0000
35.4294	233.0000
35.4489	225.0000
35.4684	243.0000
35.4878	262.0000
35.5073	207.0000
35.5267	233.0000
35.5462	238.0000
35.5656	240.0000
35.5851	245.0000
35.6045	246.0000
35.6240	236.0000
35.6435	249.0000
35.6629	226.0000
35.6824	245.0000
35.7018	222.0000
35.7213	217.0000
35.7407	246.0000
35.7602	238.0000
35.7797	262.0000
35.7991	251.0000
35.8186	226.0000
35.8380	229.0000
35.8575	226.0000
35.8769	224.0000
35.8964	243.0000
35.9159	215.0000
35.9353	229.0000
35.9548	216.0000
35.9742	241.0000
35.9937	246.0000
36.0131	248.0000
36.0326	210.0000
36.0521	262.0000
36.0715	231.0000
36.0910	240.0000
36.1104	226.0000
36.1299	224.0000
36.1493	219.0000
36.1688	244.0000
36.1883	233.0000
36.2077	271.0000
36.2272	262.0000
36.2466	223.0000
36.2661	243.0000
36.2855	246.0000
36.3050	227.0000
36.3245	231.0000
36.3439	257.0000
36.3634	253.0000
36.3828	247.0000
36.4023	226.0000
36.4217	215.0000
36.4412	232.0000
36.4607	218.0000
36.4801	240.0000
36.4996	246.0000
36.5190	228.0000
36.5385	224.0000
36.5579	223.0000
36.5774	232.0000
36.5969	223.0000
36.6163	235.0000
36.6358	260.0000
36.6552	219.0000
36.6747	228.0000
36.6941	206.0000
36.7136	250.0000
36.7331	227.0000
36.7525	222.0000
36.7720	259.0000
36.7914	238.0000
36.8109	218.0000
36.8303	223.0000
36.8498	235.0000
36.8693	229.0000
36.8887	222.0000
36.9082	220.0000
36.9276	224.0000
36.9471	207.0000
36.9665	214.0000
36.9860	218.0000
37.0055	236.0000
37.0249	242.0000
37.0444	230.0000
37.0638	272.0000
37.0833	230.0000
37.1027	223.0000
37.1222	238.0000
37.1417	244.0000
37.1611	236.0000
37.1806	241.0000
37.2000	224.0000
37.2195	221.0000
37.2389	194.0000
37.2584	203.0000
37.2779	242.0000
37.2973	205.0000
37.3168	223.0000
37.3362	256.0000
37.3557	228.0000
37.3751	208.0000
37.3946	233.0000
37.4141	235.0000
37.4335	233.0000
37.4530	233.0000
37.4724	224.0000
37.4919	253.0000
37.5113	220.0000
37.5308	218.0000
37.5503	242.0000
37.5697	228.0000
37.5892	216.0000
37.6086	239.0000
37.6281	260.0000
37.6475	209.0000
37.6670	226.0000
37.6865	261.0000
37.7059	225.0000
37.7254	220.0000
37.7448	241.0000
37.7643	211.0000
37.7837	258.0000
37.8032	267.0000
37.8227	224.0000
37.8421	220.0000
37.8616	242.0000
37.8810	239.0000
37.9005	218.0000
37.9199	218.0000
37.9394	239.0000
37.9589	230.0000
37.9783	243.0000
37.9978	236.0000
38.0172	241.0000
38.0367	222.0000
38.0561	232.0000
38.0756	205.0000
38.0951	219.0000
38.1145	216.0000
38.1340	229.0000
38.1534	214.0000
38.1729	221.0000
38.1923	204.0000
38.2118	263.0000
38.2313	218.0000
38.2507	221.0000
38.2702	227.0000
38.2896	246.0000
38.3091	221.0000
38.3285	237.0000
38.3480	233.0000
38.3675	239.0000
38.3869	244.0000
38.4064	221.0000
38.4258	250.0000
38.4453	230.0000
38.4647	245.0000
38.4842	229.0000
38.5036	219.0000
38.5231	247.0000
38.5426	248.0000
38.5620	246.0000
38.5815	246.0000
38.6009	242.0000
38.6204	239.0000
38.6398	218.0000
38.6593	249.0000
38.6788	256.0000
38.6982	267.0000
38.7177	242.0000
38.7371	235.0000
38.7566	229.0000
38.7760	249.0000
38.7955	231.0000
38.8150	244.0000
38.8344	263.0000
38.8539	255.0000
38.8733	258.0000
38.8928	225.0000
38.9122	238.0000
38.9317	271.0000
38.9512	260.0000
38.9706	249.0000
38.9901	228.0000
39.0095	238.0000
39.0290	233.0000
39.0484	255.0000
39.0679	211.0000
39.0874	225.0000
39.1068	246.0000
39.1263	223.0000
39.1457	251.0000
39.1652	247.0000
39.1846	256.0000
39.2041	234.0000
39.2236	243.0000
39.2430	235.0000
39.2625	247.0000
39.2819	240.0000
39.3014	237.0000
39.3208	270.0000
39.3403	214.0000
39.3598	231.0000
39.3792	219.0000
39.3987	213.0000
39.4181	248.0000
39.4376	230.0000
39.4570	235.0000
39.4765	236.0000
39.4960	231.0000
39.5154	229.0000
39.5349	222.0000
39.5543	230.0000
39.5738	250.0000
39.5932	198.0000
39.6127	219.0000
39.6322	229.0000
39.6516	256.0000
39.6711	226.0000
39.6905	226.0000
39.7100	231.0000
39.7294	262.0000
39.7489	236.0000
39.7684	231.0000
39.7878	234.0000
39.8073	234.0000
39.8267	222.0000
39.8462	241.0000
39.8656	250.0000
39.8851	215.0000
39.9046	249.0000
39.9240	215.0000
39.9435	249.0000
39.9629	253.0000
39.9824	243.0000
40.0018	269.0000
40.0213	225.0000
40.0408	260.0000
40.0602	237.0000
40.0797	217.0000
40.0991	236.0000
40.1186	250.0000
40.1380	221.0000
40.1575	218.0000
40.1770	225.0000
40.1964	238.0000
40.2159	230.0000
40.2353	255.0000
40.2548	244.0000
40.2742	214.0000
40.2937	231.0000
40.3132	216.0000
40.3326	233.0000
40.3521	246.0000
40.3715	269.0000
40.3910	235.0000
40.4104	230.0000
40.4299	234.0000
40.4494	224.0000
40.4688	230.0000
40.4883	222.0000
40.5077	228.0000
40.5272	224.0000
40.5466	225.0000
40.5661	242.0000
40.5856	260.0000
40.6050	274.0000
40.6245	223.0000
40.6439	262.0000
40.6634	232.0000
40.6828	235.0000
40.7023	247.0000
40.7218	231.0000
40.7412	244.0000
40.7607	254.0000
40.7801	231.0000
40.7996	247.0000
40.8190	209.0000
40.8385	248.0000
40.8580	211.0000
40.8774	214.0000
40.8969	253.0000
40.9163	232.0000
40.9358	243.0000
40.9552	272.0000
40.9747	242.0000
40.9942	242.0000
41.0136	232.0000
41.0331	197.0000
41.0525	215.0000
41.0720	238.0000
41.0914	233.0000
41.1109	229.0000
41.1304	253.0000
41.1498	260.0000
41.1693	236.0000
41.1887	237.0000
41.2082	255.0000
41.2276	230.0000
41.2471	261.0000
41.2665	236.0000
41.2860	213.0000
41.3055	248.0000
41.3249	242.0000
41.3444	221.0000
41.3638	240.0000
41.3833	246.0000
41.4027	244.0000
41.4222	245.0000
41.4417	231.0000
41.4611	218.0000
41.4806	258.0000
41.5000	236.0000
41.5195	225.0000
41.5389	243.0000
41.5584	233.0000
41.5779	237.0000
41.5973	225.0000
41.6168	254.0000
41.6362	257.0000
41.6557	220.0000
41.6751	245.0000
41.6946	264.0000
41.7141	249.0000
41.7335	224.0000
41.7530	250.0000
41.7724	259.0000
41.7919	226.0000
41.8113	240.0000
41.8308	237.0000
41.8503	254.0000
41.8697	205.0000
41.8892	239.0000
41.9086	249.0000
41.9281	251.0000
41.9475	238.0000
41.9670	247.0000
41.9865	221.0000
42.0059	247.0000
42.0254	236.0000
42.0448	250.0000
42.0643	250.0000
42.0837	236.0000
42.1032	277.0000
42.1227	246.0000
42.1421	252.0000
42.1616	265.0000
42.1810	235.0000
42.2005	248.0000
42.2199	255.0000
42.2394	261.0000
42.2589	248.0000
42.2783	244.0000
42.2978	242.0000
42.3172	263.0000
42.3367	264.0000
42.3561	227.0000
42.3756	231.0000
42.3951	266.0000
42.4145	252.0000
42.4340	256.0000
42.4534	259.0000
42.4729	260.0000
42.4923	224.0000
42.5118	235.0000
42.5313	252.0000
42.5507	253.0000
42.5702	256.0000
42.5896	229.0000
42.6091	261.0000
42.6285	293.0000
42.6480	268.0000
42.6675	291.0000
42.6869	250.0000
42.7064	283.0000
42.7258	246.0000
42.7453	303.0000
42.7647	261.0000
42.7842	269.0000
42.8037	265.0000
42.8231	288.0000
42.8426	269.0000
42.8620	253.0000
42.8815	255.0000
42.9009	290.0000
42.9204	260.0000
42.9399	300.0000
42.9593	252.0000
42.9788	315.0000
42.9982	275.0000
43.0177	294.0000
43.0371	272.0000
43.0566	321.0000
43.0761	265.0000
43.0955	296.0000
43.1150	303.0000
43.1344	277.0000
43.1539	275.0000
43.1733	287.0000
43.1928	263.0000
43.2123	282.0000
43.2317	302.0000
43.2512	290.0000
43.2706	324.0000
43.2901	316.0000
43.3095	273.0000
43.3290	325.0000
43.3485	327.0000
43.3679	356.0000
43.3874	344.0000
43.4068	304.0000
43.4263	370.0000
43.4457	383.0000
43.4652	372.0000
43.4847	388.0000
43.5041	450.0000
43.5236	426.0000
43.5430	491.0000
43.5625	536.0000
43.5819	529.0000
43.6014	562.0000
43.6209	663.0000
43.6403	732.0000
43.6598	747.0000
43.6792	859.0000
43.6987	906.0000
43.7181	1027.0000
43.7376	1229.0000
43.7571	1402.0000
43.7765	1576.0000
43.7960	1843.0000
43.8154	2098.0000
43.8349	2330.0000
43.8543	2321.0000
43.8738	2254.0000
43.8933	2258.0000
43.9127	2123.0000
43.9322	1906.0000
43.9516	1814.0000
43.9711	1748.0000
43.9905	1611.0000
44.0100	1352.0000
44.0295	1181.0000
44.0489	1062.0000
44.0684	967.0000
44.0878	866.0000
44.1073	808.0000
44.1267	768.0000
44.1462	678.0000
44.1656	594.0000
44.1851	587.0000
44.2046	532.0000
44.2240	475.0000
44.2435	454.0000
44.2629	482.0000
44.2824	427.0000
44.3018	392.0000
44.3213	365.0000
44.3408	377.0000
44.3602	366.0000
44.3797	345.0000
44.3991	320.0000
44.4186	320.0000
44.4380	324.0000
44.4575	315.0000
44.4770	338.0000
44.4964	350.0000
44.5159	323.0000
44.5353	288.0000
44.5548	270.0000
44.5742	275.0000
44.5937	291.0000
44.6132	298.0000
44.6326	302.0000
44.6521	268.0000
44.6715	279.0000
44.6910	286.0000
44.7104	276.0000
44.7299	290.0000
44.7494	250.0000
44.7688	273.0000
44.7883	270.0000
44.8077	243.0000
44.8272	282.0000
44.8466	280.0000
44.8661	265.0000
44.8856	284.0000
44.9050	275.0000
44.9245	278.0000
44.9439	232.0000
44.9634	296.0000
44.9828	277.0000
45.0023	239.0000
45.0218	261.0000
45.0412	243.0000
45.0607	245.0000
45.0801	254.0000
45.0996	237.0000
45.1190	264.0000
45.1385	270.0000
45.1580	265.0000
45.1774	247.0000
45.1969	239.0000
45.2163	252.0000
45.2358	265.0000
45.2552	263.0000
45.2747	256.0000
45.2942	260.0000
45.3136	268.0000
45.3331	248.0000
45.3525	269.0000
45.3720	253.0000
45.3914	259.0000
45.4109	241.0000
45.4304	260.0000
45.4498	261.0000
45.4693	267.0000
45.4887	252.0000
45.5082	233.0000
45.5276	237.0000
45.5471	269.0000
45.5666	252.0000
45.5860	251.0000
45.6055	274.0000
45.6249	250.0000
45.6444	264.0000
45.6638	250.0000
45.6833	242.0000
45.7028	220.0000
45.7222	222.0000
45.7417	258.0000
45.7611	232.0000
45.7806	232.0000
45.8000	235.0000
45.8195	266.0000
45.8390	262.0000
45.8584	252.0000
45.8779	230.0000
45.8973	215.0000
45.9168	233.0000
45.9362	245.0000
45.9557	255.0000
45.9752	235.0000
45.9946	267.0000
46.0141	242.0000
46.0335	246.0000
46.0530	229.0000
46.0724	257.0000
46.0919	218.0000
46.1114	224.0000
46.1308	242.0000
46.1503	285.0000
46.1697	252.0000
46.1892	273.0000
46.2086	228.0000
46.2281	250.0000
46.2476	233.0000
46.2670	254.0000
46.2865	226.0000
46.3059	219.0000
46.3254	258.0000
46.3448	238.0000
46.3643	224.0000
46.3838	259.0000
46.4032	251.0000
46.4227	251.0000
46.4421	238.0000
46.4616	232.0000
46.4810	257.0000
46.5005	226.0000
46.5200	262.0000
46.5394	256.0000
46.5589	232.0000
46.5783	245.0000
46.5978	275.0000
46.6172	234.0000
46.6367	269.0000
46.6562	271.0000
46.6756	268.0000
46.6951	265.0000
46.7145	273.0000
46.7340	243.0000
46.7534	265.0000
46.7729	242.0000
46.7924	239.0000
46.8118	236.0000
46.8313	236.0000
46.8507	268.0000
46.8702	266.0000
46.8896	261.0000
46.9091	236.0000
46.9285	243.0000
46.9480	298.0000
46.9675	282.0000
46.9869	229.0000
47.0064	294.0000
47.0258	266.0000
47.0453	271.0000
47.0647	247.0000
47.0842	260.0000
47.1037	264.0000
47.1231	255.0000
47.1426	274.0000
47.1620	269.0000
47.1815	266.0000
47.2009	268.0000
47.2204	305.0000
47.2399	276.0000
47.2593	258.0000
47.2788	235.0000
47.2982	259.0000
47.3177	241.0000
47.3371	245.0000
47.3566	258.0000
47.3761	272.0000
47.3955	248.0000
47.4150	227.0000
47.4344	231.0000
47.4539	244.0000
47.4733	249.0000
47.4928	294.0000
47.5123	249.0000
47.5317	264.0000
47.5512	237.0000
47.5706	244.0000
47.5901	225.0000
47.6095	263.0000
47.6290	249.0000
47.6485	237.0000
47.6679	255.0000
47.6874	257.0000
47.7068	252.0000
47.7263	243.0000
47.7457	235.0000
47.7652	239.0000
47.7847	226.0000
47.8041	271.0000
47.8236	254.0000
47.8430	244.0000
47.8625	255.0000
47.8819	253.0000
47.9014	269.0000
47.9209	234.0000
47.9403	262.0000
47.9598	256.0000
47.9792	245.0000
47.9987	250.0000
48.0181	244.0000
48.0376	286.0000
48.0571	230.0000
48.0765	239.0000
48.0960	255.0000
48.1154	266.0000
48.1349	286.0000
48.1543	245.0000
48.1738	274.0000
48.1933	259.0000
48.2127	264.0000
48.2322	253.0000
48.2516	232.0000
48.2711	258.0000
48.2905	266.0000
48.3100	260.0000
48.3295	267.0000
48.3489	236.0000
48.3684	246.0000
48.3878	252.0000
48.4073	209.0000
48.4267	258.0000
48.4462	213.0000
48.4657	240.0000
48.4851	261.0000
48.5046	269.0000
48.5240	236.0000
48.5435	242.0000
48.5629	266.0000
48.5824	275.0000
48.6019	225.0000
48.6213	278.0000
48.6408	237.0000
48.6602	249.0000
48.6797	274.0000
48.6991	236.0000
48.7186	246.0000
48.7381	270.0000
48.7575	231.0000
48.7770	222.0000
48.7964	260.0000
48.8159	221.0000
48.8353	216.0000
48.8548	248.0000
48.8743	249.0000
48.8937	230.0000
48.9132	237.0000
48.9326	244.0000
48.9521	222.0000
48.9715	222.0000
48.9910	219.0000
49.0105	235.0000
49.0299	253.0000
49.0494	253.0000
49.0688	256.0000
49.0883	235.0000
49.1077	259.0000
49.1272	252.0000
49.1467	255.0000
49.1661	265.0000
49.1856	273.0000
49.2050	247.0000
49.2245	274.0000
49.2439	231.0000
49.2634	254.0000
49.2829	233.0000
49.3023	236.0000
49.3218	228.0000
49.3412	249.0000
49.3607	262.0000
49.3801	255.0000
49.3996	239.0000
49.4191	239.0000
49.4385	263.0000
49.4580	264.0000
49.4774	247.0000
49.4969	256.0000
49.5163	267.0000
49.5358	267.0000
49.5553	234.0000
49.5747	271.0000
49.5942	245.0000
49.6136	251.0000
49.6331	255.0000
49.6525	252.0000
49.6720	268.0000
49.6914	265.0000
49.7109	227.0000
49.7304	252.0000
49.7498	233.0000
49.7693	266.0000
49.7887	248.0000
49.8082	266.0000
49.8276	263.0000
49.8471	279.0000
49.8666	283.0000
49.8860	240.0000
49.9055	247.0000
49.9249	267.0000
49.9444	244.0000
49.9638	286.0000
49.9833	294.0000
50.0028	258.0000
50.0222	280.0000
50.0417	264.0000
50.0611	268.0000
50.0806	246.0000
50.1000	288.0000
50.1195	287.0000
50.1390	271.0000
50.1584	254.0000
50.1779	310.0000
50.1973	300.0000
50.2168	282.0000
50.2362	306.0000
50.2557	291.0000
50.2752	310.0000
50.2946	294.0000
50.3141	314.0000
50.3335	300.0000
50.3530	278.0000
50.3724	302.0000
50.3919	302.0000
50.4114	312.0000
50.4308	294.0000
50.4503	332.0000
50.4697	355.0000
50.4892	347.0000
50.5086	336.0000
50.5281	337.0000
50.5476	378.0000
50.5670	376.0000
50.5865	354.0000
50.6059	385.0000
50.6254	352.0000
50.6448	423.0000
50.6643	410.0000
50.6838	468.0000
50.7032	438.0000
50.7227	460.0000
50.7421	455.0000
50.7616	507.0000
50.7810	513.0000
50.8005	565.0000
50.8200	564.0000
50.8394	561.0000
50.8589	650.0000
50.8783	638.0000
50.8978	666.0000
50.9172	721.0000
50.9367	751.0000
50.9562	779.0000
50.9756	810.0000
50.9951	824.0000
51.0145	823.0000
51.0340	785.0000
51.0534	816.0000
51.0729	736.0000
51.0924	705.0000
51.1118	653.0000
51.1313	625.0000
51.1507	644.0000
51.1702	594.0000
51.1896	582.0000
51.2091	508.0000
51.2286	493.0000
51.2480	456.0000
51.2675	466.0000
51.2869	377.0000
51.3064	390.0000
51.3258	371.0000
51.3453	382.0000
51.3648	351.0000
51.3842	358.0000
51.4037	367.0000
51.4231	335.0000
51.4426	313.0000
51.4620	353.0000
51.4815	309.0000
51.5010	333.0000
51.5204	308.0000
51.5399	284.0000
51.5593	283.0000
51.5788	267.0000
51.5982	278.0000
51.6177	280.0000
51.6372	297.0000
51.6566	263.0000
51.6761	292.0000
51.6955	271.0000
51.7150	283.0000
51.7344	278.0000
51.7539	250.0000
51.7734	283.0000
51.7928	264.0000
51.8123	256.0000
51.8317	281.0000
51.8512	256.0000
51.8706	281.0000
51.8901	270.0000
51.9096	257.0000
51.9290	255.0000
51.9485	278.0000
51.9679	283.0000
51.9874	230.0000
52.0068	255.0000
52.0263	261.0000
52.0458	271.0000
52.0652	255.0000
52.0847	260.0000
52.1041	253.0000
52.1236	270.0000
52.1430	248.0000
52.1625	263.0000
52.1820	259.0000
52.2014	261.0000
52.2209	262.0000
52.2403	268.0000
52.2598	252.0000
52.2792	277.0000
52.2987	233.0000
52.3182	255.0000
52.3376	263.0000
52.3571	223.0000
52.3765	251.0000
52.3960	235.0000
52.4154	244.0000
52.4349	266.0000
52.4544	247.0000
52.4738	252.0000
52.4933	250.0000
52.5127	255.0000
52.5322	253.0000
52.5516	226.0000
52.5711	225.0000
52.5905	243.0000
52.6100	224.0000
52.6295	241.0000
52.6489	248.0000
52.6684	250.0000
52.6878	240.0000
52.7073	245.0000
52.7267	265.0000
52.7462	224.0000
52.7657	255.0000
52.7851	244.0000
52.8046	220.0000
52.8240	241.0000
52.8435	282.0000
52.8629	212.0000
52.8824	229.0000
52.9019	241.0000
52.9213	250.0000
52.9408	229.0000
52.9602	267.0000
52.9797	239.0000
52.9991	298.0000
53.0186	246.0000
53.0381	229.0000
53.0575	244.0000
53.0770	254.0000
53.0964	255.0000
53.1159	242.0000
53.1353	235.0000
53.1548	241.0000
53.1743	239.0000
53.1937	259.0000
53.2132	267.0000
53.2326	257.0000
53.2521	257.0000
53.2715	264.0000
53.2910	236.0000
53.3105	245.0000
53.3299	243.0000
53.3494	244.0000
53.3688	245.0000
53.3883	235.0000
53.4077	224.0000
53.4272	250.0000
53.4467	218.0000
53.4661	256.0000
53.4856	248.0000
53.5050	225.0000
53.5245	254.0000
53.5439	235.0000
53.5634	231.0000
53.5829	245.0000
53.6023	220.0000
53.6218	227.0000
53.6412	253.0000
53.6607	235.0000
53.6801	239.0000
53.6996	215.0000
53.7191	251.0000
53.7385	248.0000
53.7580	240.0000
53.7774	257.0000
53.7969	263.0000
53.8163	257.0000
53.8358	240.0000
53.8553	253.0000
53.8747	237.0000
53.8942	237.0000
53.9136	227.0000
53.9331	239.0000
53.9525	253.0000
53.9720	237.0000
53.9915	269.0000
54.0109	223.0000
54.0304	253.0000
54.0498	242.0000
54.0693	230.0000
54.0887	211.0000
54.1082	250.0000
54.1277	224.0000
54.1471	234.0000
54.1666	251.0000
54.1860	276.0000
54.2055	270.0000
54.2249	219.0000
54.2444	207.0000
54.2639	262.0000
54.2833	214.0000
54.3028	235.0000
54.3222	220.0000
54.3417	226.0000
54.3611	243.0000
54.3806	209.0000
54.4001	239.0000
54.4195	267.0000
54.4390	230.0000
54.4584	229.0000
54.4779	251.0000
54.4973	248.0000
54.5168	255.0000
54.5363	217.0000
54.5557	247.0000
54.5752	228.0000
54.5946	243.0000
54.6141	232.0000
54.6335	248.0000
54.6530	257.0000
54.6725	253.0000
54.6919	228.0000
54.7114	250.0000
54.7308	238.0000
54.7503	251.0000
54.7697	232.0000
54.7892	227.0000
54.8087	253.0000
54.8281	243.0000
54.8476	240.0000
54.8670	233.0000
54.8865	225.0000
54.9059	240.0000
54.9254	241.0000
54.9449	235.0000
54.9643	260.0000
54.9838	235.0000
55.0032	256.0000
55.0227	265.0000
55.0421	240.0000
55.0616	246.0000
55.0811	237.0000
55.1005	217.0000
55.1200	262.0000
55.1394	233.0000
55.1589	255.0000
55.1783	224.0000
55.1978	237.0000
55.2173	225.0000
55.2367	247.0000
55.2562	230.0000
55.2756	258.0000
55.2951	240.0000
55.3145	251.0000
55.3340	240.0000
55.3534	231.0000
55.3729	236.0000
55.3924	258.0000
55.4118	206.0000
55.4313	229.0000
55.4507	243.0000
55.4702	205.0000
55.4896	242.0000
55.5091	246.0000
55.5286	241.0000
55.5480	244.0000
55.5675	239.0000
55.5869	250.0000
55.6064	251.0000
55.6258	238.0000
55.6453	231.0000
55.6648	241.0000
55.6842	227.0000
55.7037	237.0000
55.7231	236.0000
55.7426	236.0000
55.7620	234.0000
55.7815	254.0000
55.8010	245.0000
55.8204	233.0000
55.8399	230.0000
55.8593	205.0000
55.8788	223.0000
55.8982	287.0000
55.9177	211.0000
55.9372	229.0000
55.9566	249.0000
55.9761	253.0000
55.9955	217.0000
56.0150	240.0000
56.0344	239.0000
56.0539	234.0000
56.0734	248.0000
56.0928	260.0000
56.1123	190.0000
56.1317	255.0000
56.1512	260.0000
56.1706	214.0000
56.1901	257.0000
56.2096	222.0000
56.2290	253.0000
56.2485	227.0000
56.2679	233.0000
56.2874	226.0000
56.3068	240.0000
56.3263	231.0000
56.3458	232.0000
56.3652	240.0000
56.3847	246.0000
56.4041	237.0000
56.4236	225.0000
56.4430	264.0000
56.4625	249.0000
56.4820	237.0000
56.5014	227.0000
56.5209	253.0000
56.5403	264.0000
56.5598	239.0000
56.5792	240.0000
56.5987	244.0000
56.6182	260.0000
56.6376	247.0000
56.6571	249.0000
56.6765	259.0000
56.6960	253.0000
56.7154	234.0000
56.7349	244.0000
56.7544	226.0000
56.7738	239.0000
56.7933	223.0000
56.8127	256.0000
56.8322	248.0000
56.8516	230.0000
56.8711	240.0000
56.8906	239.0000
56.9100	238.0000
56.9295	246.0000
56.9489	269.0000
56.9684	245.0000
56.9878	253.0000
57.0073	252.0000
57.0268	232.0000
57.0462	272.0000
57.0657	239.0000
57.0851	279.0000
57.1046	232.0000
57.1240	223.0000
57.1435	266.0000
57.1630	243.0000
57.1824	265.0000
57.2019	273.0000
57.2213	227.0000
57.2408	234.0000
57.2602	217.0000
57.2797	230.0000
57.2992	224.0000
57.3186	226.0000
57.3381	256.0000
57.3575	245.0000
57.3770	226.0000
57.3964	231.0000
57.4159	242.0000
57.4354	259.0000
57.4548	208.0000
57.4743	235.0000
57.4937	252.0000
57.5132	238.0000
57.5326	223.0000
57.5521	241.0000
57.5716	262.0000
57.5910	241.0000
57.6105	252.0000
57.6299	225.0000
57.6494	216.0000
57.6688	226.0000
57.6883	200.0000
57.7078	220.0000
57.7272	277.0000
57.7467	254.0000
57.7661	269.0000
57.7856	224.0000
57.8050	233.0000
57.8245	230.0000
57.8440	261.0000
57.8634	246.0000
57.8829	238.0000
57.9023	235.0000
57.9218	268.0000
57.9412	252.0000
57.9607	237.0000
57.9802	223.0000
57.9996	260.0000
58.0191	243.0000
58.0385	242.0000
58.0580	212.0000
58.0774	234.0000
58.0969	238.0000
58.1163	230.0000
58.1358	238.0000
58.1553	232.0000
58.1747	215.0000
58.1942	209.0000
58.2136	232.0000
58.2331	242.0000
58.2525	253.0000
58.2720	221.0000
58.2915	257.0000
58.3109	226.0000
58.3304	203.0000
58.3498	250.0000
58.3693	221.0000
58.3887	225.0000
58.4082	242.0000
58.4277	231.0000
58.4471	238.0000
58.4666	228.0000
58.4860	250.0000
58.5055	240.0000
58.5249	205.0000
58.5444	259.0000
58.5639	227.0000
58.5833	238.0000
58.6028	192.0000
58.6222	237.0000
58.6417	229.0000
58.6611	244.0000
58.6806	233.0000
58.7001	220.0000
58.7195	264.0000
58.7390	208.0000
58.7584	260.0000
58.7779	244.0000
58.7973	246.0000
58.8168	231.0000
58.8363	199.0000
58.8557	238.0000
58.8752	203.0000
58.8946	234.0000
58.9141	220.0000
58.9335	210.0000
58.9530	235.0000
58.9725	240.0000
58.9919	206.0000
59.0114	238.0000
59.0308	247.0000
59.0503	242.0000
59.0697	247.0000
59.0892	224.0000
59.1087	245.0000
59.1281	241.0000
59.1476	235.0000
59.1670	221.0000
59.1865	252.0000
59.2059	225.0000
59.2254	221.0000
59.2449	223.0000
59.2643	253.0000
59.2838	221.0000
59.3032	228.0000
59.3227	231.0000
59.3421	256.0000
59.3616	239.0000
59.3811	249.0000
59.4005	248.0000
59.4200	224.0000
59.4394	240.0000
59.4589	226.0000
59.4783	243.0000
59.4978	218.0000
59.5173	230.0000
59.5367	210.0000
59.5562	213.0000
59.5756	222.0000
59.5951	230.0000
59.6145	227.0000
59.6340	225.0000
59.6535	252.0000
59.6729	249.0000
59.6924	253.0000
59.7118	254.0000
59.7313	227.0000
59.7507	221.0000
59.7702	211.0000
59.7897	231.0000
59.8091	245.0000
59.8286	266.0000
59.8480	220.0000
59.8675	216.0000
59.8869	262.0000
59.9064	205.0000
59.9259	237.0000
59.9453	232.0000
59.9648	246.0000
59.9842	215.0000
60.0037	241.0000
60.0231	241.0000
60.0426	228.0000
60.0621	219.0000
60.0815	222.0000
60.1010	244.0000
60.1204	256.0000
60.1399	270.0000
60.1593	238.0000
60.1788	215.0000
60.1983	224.0000
60.2177	259.0000
60.2372	240.0000
60.2566	254.0000
60.2761	257.0000
60.2955	226.0000
60.3150	225.0000
60.3345	248.0000
60.3539	249.0000
60.3734	244.0000
60.3928	264.0000
60.4123	237.0000
60.4317	252.0000
60.4512	216.0000
60.4707	268.0000
60.4901	233.0000
60.5096	240.0000
60.5290	244.0000
60.5485	254.0000
60.5679	247.0000
60.5874	257.0000
60.6069	262.0000
60.6263	215.0000
60.6458	231.0000
60.6652	239.0000
60.6847	219.0000
60.7041	220.0000
60.7236	238.0000
60.7431	247.0000
60.7625	245.0000
60.7820	238.0000
60.8014	243.0000
60.8209	222.0000
60.8403	261.0000
60.8598	241.0000
60.8793	234.0000
60.8987	210.0000
60.9182	252.0000
60.9376	223.0000
60.9571	243.0000
60.9765	240.0000
60.9960	260.0000
61.0154	219.0000
61.0349	222.0000
61.0544	232.0000
61.0738	248.0000
61.0933	244.0000
61.1127	251.0000
61.1322	264.0000
61.1516	239.0000
61.1711	240.0000
61.1906	204.0000
61.2100	234.0000
61.2295	235.0000
61.2489	263.0000
61.2684	243.0000
61.2878	240.0000
61.3073	209.0000
61.3268	257.0000
61.3462	240.0000
61.3657	230.0000
61.3851	258.0000
61.4046	229.0000
61.4240	251.0000
61.4435	226.0000
61.4630	256.0000
61.4824	214.0000
61.5019	256.0000
61.5213	233.0000
61.5408	211.0000
61.5602	250.0000
61.5797	224.0000
61.5992	234.0000
61.6186	266.0000
61.6381	242.0000
61.6575	232.0000
61.6770	240.0000
61.6964	212.0000
61.7159	229.0000
61.7354	214.0000
61.7548	217.0000
61.7743	243.0000
61.7937	238.0000
61.8132	211.0000
61.8326	226.0000
61.8521	221.0000
61.8716	239.0000
61.8910	213.0000
61.9105	236.0000
61.9299	244.0000
61.9494	238.0000
61.9688	222.0000
61.9883	220.0000
62.0078	225.0000
62.0272	241.0000
62.0467	217.0000
62.0661	219.0000
62.0856	246.0000
62.1050	223.0000
62.1245	236.0000
62.1440	239.0000
62.1634	220.0000
62.1829	197.0000
62.2023	236.0000
62.2218	219.0000
62.2412	218.0000
62.2607	228.0000
62.2802	229.0000
62.2996	254.0000
62.3191	241.0000
62.3385	223.0000
62.3580	218.0000
62.3774	233.0000
62.3969	246.0000
62.4164	271.0000
62.4358	244.0000
62.4553	224.0000
62.4747	238.0000
62.4942	223.0000
62.5136	254.0000
62.5331	226.0000
62.5526	248.0000
62.5720	223.0000
62.5915	242.0000
62.6109	247.0000
62.6304	224.0000
62.6498	231.0000
62.6693	275.0000
62.6888	239.0000
62.7082	282.0000
62.7277	254.0000
62.7471	253.0000
62.7666	230.0000
62.7860	237.0000
62.8055	251.0000
62.8250	194.0000
62.8444	233.0000
62.8639	267.0000
62.8833	240.0000
62.9028	217.0000
62.9222	220.0000
62.9417	253.0000
62.9612	216.0000
62.9806	214.0000
63.0001	252.0000
63.0195	229.0000
63.0390	245.0000
63.0584	273.0000
63.0779	201.0000
63.0974	203.0000
63.1168	224.0000
63.1363	216.0000
63.1557	238.0000
63.1752	236.0000
63.1946	241.0000
63.2141	221.0000
63.2336	263.0000
63.2530	209.0000
63.2725	220.0000
63.2919	247.0000
63.3114	217.0000
63.3308	277.0000
63.3503	221.0000
63.3698	242.0000
63.3892	231.0000
63.4087	264.0000
63.4281	240.0000
63.4476	225.0000
63.4670	220.0000
63.4865	247.0000
63.5060	235.0000
63.5254	242.0000
63.5449	220.0000
63.5643	232.0000
63.5838	214.0000
63.6032	255.0000
63.6227	226.0000
63.6422	240.0000
63.6616	230.0000
63.6811	229.0000
63.7005	234.0000
63.7200	231.0000
63.7394	257.0000
63.7589	231.0000
63.7783	219.0000
63.7978	213.0000
63.8173	231.0000
63.8367	240.0000
63.8562	250.0000
63.8756	224.0000
63.8951	236.0000
63.9145	222.0000
63.9340	221.0000
63.9535	251.0000
63.9729	217.0000
63.9924	234.0000
64.0118	251.0000
64.0313	237.0000
64.0507	226.0000
64.0702	245.0000
64.0897	248.0000
64.1091	240.0000
64.1286	253.0000
64.1480	276.0000
64.1675	248.0000
64.1869	243.0000
64.2064	248.0000
64.2259	254.0000
64.2453	244.0000
64.2648	273.0000
64.2842	251.0000
64.3037	263.0000
64.3231	255.0000
64.3426	220.0000
64.3621	241.0000
64.3815	248.0000
64.4010	248.0000
64.4204	229.0000
64.4399	255.0000
64.4593	242.0000
64.4788	248.0000
64.4983	229.0000
64.5177	235.0000
64.5372	237.0000
64.5566	234.0000
64.5761	244.0000
64.5955	231.0000
64.6150	242.0000
64.6345	239.0000
64.6539	214.0000
64.6734	240.0000
64.6928	241.0000
64.7123	238.0000
64.7317	258.0000
64.7512	239.0000
64.7707	233.0000
64.7901	242.0000
64.8096	244.0000
64.8290	232.0000
64.8485	243.0000
64.8679	248.0000
64.8874	217.0000
64.9069	242.0000
64.9263	222.0000
64.9458	267.0000
64.9652	246.0000
64.9847	239.0000
65.0041	242.0000
65.0236	225.0000
65.0431	239.0000
65.0625	265.0000
65.0820	248.0000
65.1014	245.0000
65.1209	234.0000
65.1403	248.0000
65.1598	272.0000
65.1793	220.0000
65.1987	228.0000
65.2182	246.0000
65.2376	223.0000
65.2571	246.0000
65.2765	239.0000
65.2960	247.0000
65.3155	236.0000
65.3349	232.0000
65.3544	245.0000
65.3738	262.0000
65.3933	226.0000
65.4127	247.0000
65.4322	280.0000
65.4517	233.0000
65.4711	208.0000
65.4906	238.0000
65.5100	244.0000
65.5295	236.0000
65.5489	214.0000
65.5684	249.0000
65.5879	243.0000
65.6073	242.0000
65.6268	253.0000
65.6462	241.0000
65.6657	235.0000
65.6851	218.0000
65.7046	246.0000
65.7241	220.0000
65.7435	210.0000
65.7630	237.0000
65.7824	233.0000
65.8019	253.0000
65.8213	229.0000
65.8408	230.0000
65.8603	238.0000
65.8797	238.0000
65.8992	242.0000
65.9186	226.0000
65.9381	239.0000
65.9575	247.0000
65.9770	240.0000
65.9965	236.0000
66.0159	263.0000
66.0354	232.0000
66.0548	215.0000
66.0743	217.0000
66.0937	217.0000
66.1132	225.0000
66.1327	252.0000
66.1521	252.0000
66.1716	235.0000
66.1910	240.0000
66.2105	247.0000
66.2299	242.0000
66.2494	249.0000
66.2689	238.0000
66.2883	208.0000
66.3078	245.0000
66.3272	246.0000
66.3467	264.0000
66.3661	237.0000
66.3856	224.0000
66.4051	241.0000
66.4245	241.0000
66.4440	223.0000
66.4634	223.0000
66.4829	218.0000
66.5023	211.0000
66.5218	231.0000
66.5413	245.0000
66.5607	236.0000
66.5802	243.0000
66.5996	263.0000
66.6191	211.0000
66.6385	254.0000
66.6580	227.0000
66.6774	205.0000
66.6969	237.0000
66.7164	253.0000
66.7358	222.0000
66.7553	228.0000
66.7747	251.0000
66.7942	242.0000
66.8136	237.0000
66.8331	230.0000
66.8526	238.0000
66.8720	222.0000
66.8915	227.0000
66.9109	254.0000
66.9304	226.0000
66.9498	232.0000
66.9693	265.0000
66.9888	232.0000
67.0082	224.0000
67.0277	231.0000
67.0471	236.0000
67.0666	235.0000
67.0860	242.0000
67.1055	226.0000
67.1250	226.0000
67.1444	224.0000
67.1639	234.0000
67.1833	222.0000
67.2028	233.0000
67.2222	237.0000
67.2417	223.0000
67.2612	207.0000
67.2806	239.0000
67.3001	248.0000
67.3195	249.0000
67.3390	237.0000
67.3584	252.0000
67.3779	239.0000
67.3974	252.0000
67.4168	242.0000
67.4363	240.0000
67.4557	246.0000
67.4752	235.0000
67.4946	243.0000
67.5141	218.0000
67.5336	214.0000
67.5530	231.0000
67.5725	252.0000
67.5919	221.0000
67.6114	229.0000
67.6308	253.0000
67.6503	240.0000
67.6698	250.0000
67.6892	218.0000
67.7087	236.0000
67.7281	228.0000
67.7476	244.0000
67.7670	235.0000
67.7865	222.0000
67.8060	243.0000
67.8254	224.0000
67.8449	205.0000
67.8643	221.0000
67.8838	201.0000
67.9032	222.0000
67.9227	249.0000
67.9422	215.0000
67.9616	229.0000
67.9811	258.0000
68.0005	229.0000
68.0200	252.0000
68.0394	218.0000
68.0589	210.0000
68.0784	233.0000
68.0978	221.0000
68.1173	226.0000
68.1367	234.0000
68.1562	251.0000
68.1756	251.0000
68.1951	216.0000
68.2146	237.0000
68.2340	251.0000
68.2535	231.0000
68.2729	239.0000
68.2924	228.0000
68.3118	229.0000
68.3313	253.0000
68.3508	231.0000
68.3702	232.0000
68.3897	241.0000
68.4091	225.0000
68.4286	243.0000
68.4480	228.0000
68.4675	222.0000
68.4870	219.0000
68.5064	243.0000
68.5259	223.0000
68.5453	235.0000
68.5648	227.0000
68.5842	247.0000
68.6037	238.0000
68.6232	238.0000
68.6426	241.0000
68.6621	205.0000
68.6815	225.0000
68.7010	262.0000
68.7204	245.0000
68.7399	218.0000
68.7594	245.0000
68.7788	228.0000
68.7983	229.0000
68.8177	229.0000
68.8372	248.0000
68.8566	247.0000
68.8761	238.0000
68.8956	243.0000
68.9150	230.0000
68.9345	231.0000
68.9539	256.0000
68.9734	228.0000
68.9928	220.0000
69.0123	262.0000
69.0318	243.0000
69.0512	245.0000
69.0707	228.0000
69.0901	204.0000
69.1096	235.0000
69.1290	216.0000
69.1485	199.0000
69.1680	216.0000
69.1874	244.0000
69.2069	241.0000
69.2263	251.0000
69.2458	251.0000
69.2652	219.0000
69.2847	246.0000
69.3042	226.0000
69.3236	231.0000
69.3431	211.0000
69.3625	236.0000
69.3820	265.0000
69.4014	241.0000
69.4209	234.0000
69.4403	231.0000
69.4598	228.0000
69.4793	237.0000
69.4987	234.0000
69.5182	225.0000
69.5376	251.0000
69.5571	252.0000
69.5765	233.0000
69.5960	219.0000
69.6155	240.0000
69.6349	231.0000
69.6544	259.0000
69.6738	246.0000
69.6933	239.0000
69.7127	240.0000
69.7322	251.0000
69.7517	250.0000
69.7711	276.0000
69.7906	219.0000
69.8100	212.0000
69.8295	220.0000
69.8489	231.0000
69.8684	238.0000
69.8879	252.0000
69.9073	248.0000
69.9268	224.0000
69.9462	250.0000
69.9657	280.0000
69.9851	239.0000
70.0046	249.0000
70.0241	259.0000
70.0435	240.0000
70.0630	224.0000
70.0824	219.0000
70.1019	237.0000
70.1213	232.0000
70.1408	246.0000
70.1603	245.0000
70.1797	237.0000
70.1992	264.0000
70.2186	233.0000
70.2381	252.0000
70.2575	263.0000
70.2770	242.0000
70.2965	250.0000
70.3159	259.0000
70.3354	212.0000
70.3548	262.0000
70.3743	218.0000
70.3937	222.0000
70.4132	252.0000
70.4327	231.0000
70.4521	257.0000
70.4716	231.0000
70.4910	231.0000
70.5105	260.0000
70.5299	235.0000
70.5494	243.0000
70.5689	253.0000
70.5883	234.0000
70.6078	243.0000
70.6272	214.0000
70.6467	227.0000
70.6661	232.0000
70.6856	224.0000
70.7051	244.0000
70.7245	217.0000
70.7440	223.0000
70.7634	240.0000
70.7829	262.0000
70.8023	216.0000
70.8218	214.0000
70.8413	240.0000
70.8607	238.0000
70.8802	245.0000
70.8996	242.0000
70.9191	238.0000
70.9385	257.0000
70.9580	222.0000
70.9775	230.0000
70.9969	231.0000
71.0164	237.0000
71.0358	249.0000
71.0553	253.0000
71.0747	217.0000
71.0942	221.0000
71.1137	242.0000
71.1331	225.0000
71.1526	225.0000
71.1720	231.0000
71.1915	242.0000
71.2109	219.0000
71.2304	248.0000
71.2499	243.0000
71.2693	245.0000
71.2888	240.0000
71.3082	272.0000
71.3277	256.0000
71.3471	228.0000
71.3666	203.0000
71.3861	210.0000
71.4055	233.0000
71.4250	219.0000
71.4444	283.0000
71.4639	238.0000
71.4833	248.0000
71.5028	232.0000
71.5223	242.0000
71.5417	258.0000
71.5612	233.0000
71.5806	230.0000
71.6001	236.0000
71.6195	238.0000
71.6390	250.0000
71.6585	196.0000
71.6779	206.0000
71.6974	245.0000
71.7168	231.0000
71.7363	226.0000
71.7557	250.0000
71.7752	232.0000
71.7947	225.0000
71.8141	226.0000
71.8336	236.0000
71.8530	246.0000
71.8725	206.0000
71.8919	247.0000
71.9114	245.0000
71.9309	232.0000
71.9503	215.0000
71.9698	237.0000
71.9892	229.0000
72.0087	267.0000
72.0281	238.0000
72.0476	246.0000
72.0671	239.0000
72.0865	249.0000
72.1060	229.0000
72.1254	245.0000
72.1449	244.0000
72.1643	224.0000
72.1838	250.0000
72.2032	249.0000
72.2227	267.0000
72.2422	245.0000
72.2616	230.0000
72.2811	251.0000
72.3005	275.0000
72.3200	227.0000
72.3394	250.0000
72.3589	234.0000
72.3784	232.0000
72.3978	263.0000
72.4173	231.0000
72.4367	227.0000
72.4562	242.0000
72.4756	241.0000
72.4951	255.0000
72.5146	262.0000
72.5340	228.0000
72.5535	247.0000
72.5729	248.0000
72.5924	237.0000
72.6118	231.0000
72.6313	245.0000
72.6508	232.0000
72.6702	245.0000
72.6897	257.0000
72.7091	247.0000
72.7286	258.0000
72.7480	252.0000
72.7675	260.0000
72.7870	237.0000
72.8064	222.0000
72.8259	228.0000
72.8453	249.0000
72.8648	250.0000
72.8842	216.0000
72.9037	286.0000
72.9232	229.0000
72.9426	230.0000
72.9621	257.0000
72.9815	251.0000
73.0010	229.0000
73.0204	245.0000
73.0399	236.0000
73.0594	249.0000
73.0788	210.0000
73.0983	227.0000
73.1177	254.0000
73.1372	248.0000
73.1566	231.0000
73.1761	247.0000
73.1956	251.0000
73.2150	219.0000
73.2345	240.0000
73.2539	246.0000
73.2734	226.0000
73.2928	240.0000
73.3123	232.0000
73.3318	256.0000
73.3512	222.0000
73.3707	251.0000
73.3901	249.0000
73.4096	232.0000
73.4290	238.0000
73.4485	258.0000
73.4680	240.0000
73.4874	231.0000
73.5069	226.0000
73.5263	243.0000
73.5458	229.0000
73.5652	238.0000
73.5847	231.0000
73.6042	227.0000
73.6236	226.0000
73.6431	229.0000
73.6625	227.0000
73.6820	257.0000
73.7014	250.0000
73.7209	249.0000
73.7404	227.0000
73.7598	249.0000
73.7793	240.0000
73.7987	226.0000
73.8182	231.0000
73.8376	253.0000
73.8571	242.0000
73.8766	241.0000
73.8960	245.0000
73.9155	211.0000
73.9349	234.0000
73.9544	219.0000
73.9738	217.0000
73.9933	254.0000
74.0128	262.0000
74.0322	245.0000
74.0517	249.0000
74.0711	232.0000
74.0906	246.0000
74.1100	219.0000
74.1295	236.0000
74.1490	232.0000
74.1684	256.0000
74.1879	223.0000
74.2073	221.0000
74.2268	245.0000
74.2462	218.0000
74.2657	232.0000
74.2852	274.0000
74.3046	227.0000
74.3241	245.0000
74.3435	231.0000
74.3630	225.0000
74.3824	265.0000
74.4019	230.0000
74.4214	285.0000
74.4408	229.0000
74.4603	282.0000
74.4797	254.0000
74.4992	237.0000
74.5186	237.0000
74.5381	265.0000
74.5576	244.0000
74.5770	245.0000
74.5965	282.0000
74.6159	253.0000
74.6354	272.0000
74.6548	265.0000
74.6743	273.0000
74.6938	284.0000
74.7132	266.0000
74.7327	247.0000
74.7521	280.0000
74.7716	267.0000
74.7910	291.0000
74.8105	282.0000
74.8300	316.0000
74.8494	320.0000
74.8689	356.0000
74.8883	313.0000
74.9078	354.0000
74.9272	390.0000
74.9467	379.0000
74.9662	394.0000
74.9856	390.0000
75.0051	371.0000
75.0245	430.0000
75.0440	422.0000
75.0634	395.0000
75.0829	395.0000
75.1023	365.0000
75.1218	372.0000
75.1413	383.0000
75.1607	326.0000
75.1802	367.0000
75.1996	342.0000
75.2191	347.0000
75.2385	348.0000
75.2580	328.0000
75.2775	343.0000
75.2969	341.0000
75.3164	295.0000
75.3358	300.0000
75.3553	283.0000
75.3747	271.0000
75.3942	297.0000
75.4137	273.0000
75.4331	272.0000
75.4526	274.0000
75.4720	245.0000
75.4915	269.0000
75.5109	264.0000
75.5304	291.0000
75.5499	250.0000
75.5693	274.0000
75.5888	245.0000
75.6082	256.0000
75.6277	242.0000
75.6471	270.0000
75.6666	273.0000
75.6861	255.0000
75.7055	266.0000
75.7250	249.0000
75.7444	243.0000
75.7639	246.0000
75.7833	272.0000
75.8028	267.0000
75.8223	243.0000
75.8417	247.0000
75.8612	236.0000
75.8806	244.0000
75.9001	208.0000
75.9195	260.0000
75.9390	260.0000
75.9585	256.0000
75.9779	241.0000
75.9974	276.0000
76.0168	240.0000
76.0363	228.0000
76.0557	248.0000
76.0752	281.0000
76.0947	257.0000
76.1141	244.0000
76.1336	251.0000
76.1530	259.0000
76.1725	239.0000
76.1919	240.0000
76.2114	251.0000
76.2309	246.0000
76.2503	233.0000
76.2698	252.0000
76.2892	223.0000
76.3087	245.0000
76.3281	216.0000
76.3476	282.0000
76.3671	229.0000
76.3865	233.0000
76.4060	228.0000
76.4254	210.0000
76.4449	248.0000
76.4643	237.0000
76.4838	223.0000
76.5033	209.0000
76.5227	255.0000
76.5422	229.0000
76.5616	239.0000
76.5811	236.0000
76.6005	268.0000
76.6200	231.0000
76.6395	246.0000
76.6589	249.0000
76.6784	229.0000
76.6978	242.0000
76.7173	229.0000
76.7367	239.0000
76.7562	263.0000
76.7757	226.0000
76.7951	242.0000
76.8146	251.0000
76.8340	198.0000
76.8535	229.0000
76.8729	256.0000
76.8924	229.0000
76.9119	239.0000
76.9313	251.0000
76.9508	242.0000
76.9702	227.0000
76.9897	250.0000
77.0091	217.0000
77.0286	241.0000
77.0481	265.0000
77.0675	231.0000
77.0870	274.0000
77.1064	278.0000
77.1259	262.0000
77.1453	234.0000
77.1648	267.0000
77.1843	219.0000
77.2037	246.0000
77.2232	221.0000
77.2426	254.0000
77.2621	237.0000
77.2815	248.0000
77.3010	258.0000
77.3205	255.0000
77.3399	230.0000
77.3594	238.0000
77.3788	228.0000
77.3983	226.0000
77.4177	238.0000
77.4372	244.0000
77.4567	246.0000
77.4761	250.0000
77.4956	232.0000
77.5150	249.0000
77.5345	258.0000
77.5539	244.0000
77.5734	249.0000
77.5929	239.0000
77.6123	247.0000
77.6318	244.0000
77.6512	223.0000
77.6707	236.0000
77.6901	229.0000
77.7096	233.0000
77.7291	232.0000
77.7485	242.0000
77.7680	241.0000
77.7874	205.0000
77.8069	228.0000
77.8263	246.0000
77.8458	248.0000
77.8652	247.0000
77.8847	244.0000
77.9042	247.0000
77.9236	243.0000
77.9431	225.0000
77.9625	239.0000
77.9820	202.0000
78.0014	240.0000
78.0209	223.0000
78.0404	235.0000
78.0598	231.0000
78.0793	233.0000
78.0987	228.0000
78.1182	234.0000
78.1376	249.0000
78.1571	236.0000
78.1766	246.0000
78.1960	248.0000
78.2155	242.0000
78.2349	250.0000
78.2544	217.0000
78.2738	224.0000
78.2933	239.0000
78.3128	230.0000
78.3322	243.0000
78.3517	243.0000
78.3711	247.0000
78.3906	227.0000
78.4100	249.0000
78.4295	250.0000
78.4490	230.0000
78.4684	261.0000
78.4879	222.0000
78.5073	217.0000
78.5268	237.0000
78.5462	264.0000
78.5657	260.0000
78.5852	268.0000
78.6046	263.0000
78.6241	211.0000
78.6435	217.0000
78.6630	229.0000
78.6824	223.0000
78.7019	218.0000
78.7214	244.0000
78.7408	220.0000
78.7603	230.0000
78.7797	224.0000
78.7992	251.0000
78.8186	223.0000
78.8381	255.0000
78.8576	240.0000
78.8770	265.0000
78.8965	229.0000
78.9159	250.0000
78.9354	247.0000
78.9548	239.0000
78.9743	257.0000
78.9938	233.0000
79.0132	245.0000
79.0327	242.0000
79.0521	243.0000
79.0716	238.0000
79.0910	229.0000
79.1105	223.0000
79.1300	243.0000
79.1494	243.0000
79.1689	237.0000
79.1883	223.0000
79.2078	229.0000
79.2272	231.0000
79.2467	250.0000
79.2662	256.0000
79.2856	236.0000
79.3051	219.0000
79.3245	219.0000
79.3440	245.0000
79.3634	253.0000
79.3829	240.0000
79.4024	232.0000
79.4218	231.0000
79.4413	263.0000
79.4607	244.0000
79.4802	254.0000
79.4996	225.0000
79.5191	246.0000
79.5386	241.0000
79.5580	251.0000
79.5775	235.0000
79.5969	205.0000
79.6164	245.0000
79.6358	231.0000
79.6553	258.0000
79.6748	247.0000
79.6942	240.0000
79.7137	215.0000
79.7331	246.0000
79.7526	217.0000
79.7720	232.0000
79.7915	240.0000
79.8110	249.0000
79.8304	234.0000
79.8499	241.0000
79.8693	221.0000
79.8888	217.0000
79.9082	262.0000
79.9277	237.0000
79.9472	246.0000
79.9666	251.0000
79.9861	227.0000
80.0055	220.0000
80.0250	228.0000
80.0444	241.0000
80.0639	225.0000
80.0834	271.0000
80.1028	265.0000
80.1223	242.0000
80.1417	247.0000
80.1612	219.0000
80.1806	240.0000
80.2001	266.0000
80.2196	227.0000
80.2390	230.0000
80.2585	236.0000
80.2779	233.0000
80.2974	238.0000
80.3168	245.0000
80.3363	221.0000
80.3558	249.0000
80.3752	234.0000
80.3947	237.0000
80.4141	226.0000
80.4336	272.0000
80.4530	278.0000
80.4725	258.0000
80.4920	229.0000
80.5114	228.0000
80.5309	224.0000
80.5503	237.0000
80.5698	264.0000
80.5892	233.0000
80.6087	222.0000
80.6281	229.0000
80.6476	245.0000
80.6671	215.0000
80.6865	240.0000
80.7060	224.0000
80.7254	258.0000
80.7449	254.0000
80.7643	217.0000
80.7838	234.0000
80.8033	243.0000
80.8227	252.0000
80.8422	224.0000
80.8616	223.0000
80.8811	246.0000
80.9005	230.0000
80.9200	269.0000
80.9395	213.0000
80.9589	218.0000
80.9784	269.0000
80.9978	266.0000
81.0173	236.0000
81.0367	246.0000
81.0562	265.0000
81.0757	240.0000
81.0951	221.0000
81.1146	235.0000
81.1340	253.0000
81.1535	233.0000
81.1729	234.0000
81.1924	250.0000
81.2119	224.0000
81.2313	254.0000
81.2508	266.0000
81.2702	229.0000
81.2897	255.0000
81.3091	236.0000
81.3286	229.0000
81.3481	221.0000
81.3675	230.0000
81.3870	230.0000
81.4064	258.0000
81.4259	228.0000
81.4453	217.0000
81.4648	254.0000
81.4843	241.0000
81.5037	257.0000
81.5232	246.0000
81.5426	237.0000
81.5621	242.0000
81.5815	211.0000
81.6010	210.0000
81.6205	254.0000
81.6399	263.0000
81.6594	249.0000
81.6788	207.0000
81.6983	241.0000
81.7177	244.0000
81.7372	225.0000
81.7567	251.0000
81.7761	260.0000
81.7956	250.0000
81.8150	248.0000
81.8345	258.0000
81.8539	212.0000
81.8734	255.0000
81.8929	251.0000
81.9123	222.0000
81.9318	248.0000
81.9512	260.0000
81.9707	249.0000
81.9901	240.0000
82.0096	214.0000
82.0291	232.0000
82.0485	241.0000
82.0680	242.0000
82.0874	194.0000
82.1069	240.0000
82.1263	242.0000
82.1458	254.0000
82.1653	249.0000
82.1847	237.0000
82.2042	241.0000
82.2236	219.0000
82.2431	220.0000
82.2625	241.0000
82.2820	236.0000
82.3015	226.0000
82.3209	251.0000
82.3404	239.0000
82.3598	222.0000
82.3793	253.0000
82.3987	224.0000
82.4182	244.0000
82.4377	229.0000
82.4571	252.0000
82.4766	247.0000
82.4960	256.0000
82.5155	251.0000
82.5349	245.0000
82.5544	231.0000
82.5739	242.0000
82.5933	238.0000
82.6128	235.0000
82.6322	263.0000
82.6517	225.0000
82.6711	251.0000
82.6906	239.0000
82.7101	237.0000
82.7295	241.0000
82.7490	228.0000
82.7684	215.0000
82.7879	237.0000
82.8073	238.0000
82.8268	253.0000
82.8463	223.0000
82.8657	244.0000
82.8852	254.0000
82.9046	229.0000
82.9241	249.0000
82.9435	220.0000
82.9630	224.0000
82.9825	210.0000
83.0019	227.0000
83.0214	237.0000
83.0408	251.0000
83.0603	230.0000
83.0797	228.0000
83.0992	253.0000
83.1187	270.0000
83.1381	231.0000
83.1576	251.0000
83.1770	256.0000
83.1965	245.0000
83.2159	249.0000
83.2354	249.0000
83.2549	210.0000
83.2743	246.0000
83.2938	258.0000
83.3132	251.0000
83.3327	262.0000
83.3521	227.0000
83.3716	237.0000
83.3911	251.0000
83.4105	277.0000
83.4300	247.0000
83.4494	264.0000
83.4689	261.0000
83.4883	223.0000
83.5078	265.0000
83.5272	254.0000
83.5467	242.0000
83.5662	237.0000
83.5856	249.0000
83.6051	223.0000
83.6245	282.0000
83.6440	266.0000
83.6634	226.0000
83.6829	227.0000
83.7024	245.0000
83.7218	229.0000
83.7413	229.0000
83.7607	215.0000
83.7802	220.0000
83.7996	242.0000
83.8191	243.0000
83.8386	234.0000
83.8580	255.0000
83.8775	237.0000
83.8969	247.0000
83.9164	246.0000
83.9358	267.0000
83.9553	229.0000
83.9748	238.0000
83.9942	267.0000
84.0137	240.0000
84.0331	267.0000
84.0526	249.0000
84.0720	246.0000
84.0915	259.0000
84.1110	257.0000
84.1304	228.0000
84.1499	205.0000
84.1693	226.0000
84.1888	233.0000
84.2082	275.0000
84.2277	227.0000
84.2472	235.0000
84.2666	228.0000
84.2861	238.0000
84.3055	250.0000
84.3250	228.0000
84.3444	235.0000
84.3639	238.0000
84.3834	270.0000
84.4028	244.0000
84.4223	255.0000
84.4417	244.0000
84.4612	250.0000
84.4806	250.0000
84.5001	262.0000
84.5196	211.0000
84.5390	240.0000
84.5585	243.0000
84.5779	235.0000
84.5974	227.0000
84.6168	260.0000
84.6363	258.0000
84.6558	240.0000
84.6752	263.0000
84.6947	261.0000
84.7141	263.0000
84.7336	249.0000
84.7530	258.0000
84.7725	240.0000
84.7920	241.0000
84.8114	235.0000
84.8309	240.0000
84.8503	258.0000
84.8698	237.0000
84.8892	230.0000
84.9087	254.0000
84.9282	236.0000
84.9476	249.0000
84.9671	249.0000
84.9865	234.0000
85.0060	234.0000
85.0254	242.0000
85.0449	230.0000
85.0644	245.0000
85.0838	230.0000
85.1033	227.0000
85.1227	232.0000
85.1422	227.0000
85.1616	272.0000
85.1811	227.0000
85.2006	228.0000
85.2200	232.0000
85.2395	241.0000
85.2589	239.0000
85.2784	242.0000
85.2978	240.0000
85.3173	246.0000
85.3368	204.0000
85.3562	237.0000
85.3757	260.0000
85.3951	231.0000
85.4146	243.0000
85.4340	233.0000
85.4535	247.0000
85.4730	204.0000
85.4924	241.0000
85.5119	251.0000
85.5313	209.0000
85.5508	232.0000
85.5702	265.0000
85.5897	244.0000
85.6092	246.0000
85.6286	273.0000
85.6481	241.0000
85.6675	251.0000
85.6870	233.0000
85.7064	251.0000
85.7259	246.0000
85.7454	230.0000
85.7648	237.0000
85.7843	243.0000
85.8037	221.0000
85.8232	209.0000
85.8426	259.0000
85.8621	197.0000
85.8816	259.0000
85.9010	231.0000
85.9205	248.0000
85.9399	254.0000
85.9594	238.0000
85.9788	223.0000
85.9983	254.0000
86.0178	229.0000
86.0372	252.0000
86.0567	240.0000
86.0761	204.0000
86.0956	245.0000
86.1150	258.0000
86.1345	244.0000
86.1540	211.0000
86.1734	251.0000
86.1929	215.0000
86.2123	228.0000
86.2318	229.0000
86.2512	248.0000
86.2707	206.0000
86.2901	236.0000
86.3096	223.0000
86.3291	263.0000
86.3485	230.0000
86.3680	230.0000
86.3874	242.0000
86.4069	256.0000
86.4263	235.0000
86.4458	219.0000
86.4653	223.0000
86.4847	245.0000
86.5042	221.0000
86.5236	250.0000
86.5431	242.0000
86.5625	230.0000
86.5820	247.0000
86.6015	220.0000
86.6209	239.0000
86.6404	237.0000
86.6598	250.0000
86.6793	230.0000
86.6987	265.0000
86.7182	274.0000
86.7377	254.0000
86.7571	227.0000
86.7766	252.0000
86.7960	242.0000
86.8155	225.0000
86.8349	219.0000
86.8544	243.0000
86.8739	237.0000
86.8933	263.0000
86.9128	225.0000
86.9322	252.0000
86.9517	245.0000
86.9711	234.0000
86.9906	251.0000
87.0101	251.0000
87.0295	227.0000
87.0490	241.0000
87.0684	231.0000
87.0879	234.0000
87.1073	231.0000
87.1268	224.0000
87.1463	290.0000
87.1657	222.0000
87.1852	261.0000
87.2046	232.0000
87.2241	277.0000
87.2435	249.0000
87.2630	220.0000
87.2825	230.0000
87.3019	269.0000
87.3214	238.0000
87.3408	267.0000
87.3603	231.0000
87.3797	235.0000
87.3992	225.0000
87.4187	231.0000
87.4381	266.0000
87.4576	211.0000
87.4770	250.0000
87.4965	238.0000
87.5159	250.0000
87.5354	251.0000
87.5549	240.0000
87.5743	252.0000
87.5938	221.0000
87.6132	216.0000
87.6327	217.0000
87.6521	269.0000
87.6716	227.0000
87.6911	225.0000
87.7105	239.0000
87.7300	255.0000
87.7494	267.0000
87.7689	256.0000
87.7883	212.0000
87.8078	238.0000
87.8273	237.0000
87.8467	220.0000
87.8662	241.0000
87.8856	227.0000
87.9051	249.0000
87.9245	264.0000
87.9440	266.0000
87.9635	240.0000
87.9829	234.0000
88.0024	241.0000
88.0218	225.0000
88.0413	237.0000
88.0607	257.0000
88.0802	235.0000
88.0997	220.0000
88.1191	241.0000
88.1386	249.0000
88.1580	264.0000
88.1775	231.0000
88.1969	248.0000
88.2164	239.0000
88.2359	218.0000
88.2553	216.0000
88.2748	229.0000
88.2942	252.0000
88.3137	223.0000
88.3331	253.0000
88.3526	249.0000
88.3721	247.0000
88.3915	222.0000
88.4110	227.0000
88.4304	240.0000
88.4499	211.0000
88.4693	240.0000
88.4888	236.0000
88.5083	240.0000
88.5277	220.0000
88.5472	269.0000
88.5666	261.0000
88.5861	268.0000
88.6055	262.0000
88.6250	221.0000
88.6445	245.0000
88.6639	253.0000
88.6834	253.0000
88.7028	244.0000
88.7223	260.0000
88.7417	260.0000
88.7612	258.0000
88.7807	240.0000
88.8001	201.0000
88.8196	248.0000
88.8390	241.0000
88.8585	266.0000
88.8779	235.0000
88.8974	240.0000
88.9169	271.0000
88.9363	240.0000
88.9558	236.0000
88.9752	223.0000
88.9947	289.0000
89.0141	228.0000
89.0336	232.0000
89.0531	237.0000
89.0725	240.0000
89.0920	265.0000
89.1114	251.0000
89.1309	271.0000
89.1503	239.0000
89.1698	263.0000
89.1892	251.0000
89.2087	230.0000
89.2282	235.0000
89.2476	231.0000
89.2671	234.0000
89.2865	281.0000
89.3060	271.0000
89.3254	241.0000
89.3449	262.0000
89.3644	235.0000
89.3838	233.0000
89.4033	273.0000
89.4227	232.0000
89.4422	251.0000
89.4616	253.0000
89.4811	266.0000
89.5006	272.0000
89.5200	251.0000
89.5395	261.0000
89.5589	231.0000
89.5784	221.0000
89.5978	242.0000
89.6173	249.0000
89.6368	273.0000
89.6562	234.0000
89.6757	259.0000
89.6951	254.0000
89.7146	226.0000
89.7340	218.0000
89.7535	274.0000
89.7730	272.0000
89.7924	278.0000
89.8119	250.0000
89.8313	276.0000
89.8508	259.0000
89.8702	255.0000
89.8897	277.0000
89.9092	277.0000
89.9286	243.0000
89.9481	281.0000
89.9675	274.0000
89.9870	233.0000
90.0064	265.0000
90.0259	248.0000
90.0454	252.0000
90.0648	271.0000
90.0843	270.0000
90.1037	257.0000
90.1232	252.0000
90.1426	249.0000
90.1621	276.0000
90.1816	238.0000
90.2010	302.0000
90.2205	246.0000
90.2399	300.0000
90.2594	276.0000
90.2788	282.0000
90.2983	273.0000
90.3178	304.0000
90.3372	261.0000
90.3567	268.0000
90.3761	264.0000
90.3956	277.0000
90.4150	277.0000
90.4345	286.0000
90.4540	266.0000
90.4734	253.0000
90.4929	312.0000
90.5123	306.0000
90.5318	277.0000
90.5512	305.0000
90.5707	307.0000
90.5902	299.0000
90.6096	302.0000
90.6291	285.0000
90.6485	307.0000
90.6680	350.0000
90.6874	330.0000
90.7069	353.0000
90.7264	333.0000
90.7458	343.0000
90.7653	368.0000
90.7847	334.0000
90.8042	362.0000
90.8236	388.0000
90.8431	385.0000
90.8626	408.0000
90.8820	400.0000
90.9015	377.0000
90.9209	404.0000
90.9404	431.0000
90.9598	455.0000
90.9793	522.0000
90.9988	494.0000
91.0182	511.0000
91.0377	536.0000
91.0571	544.0000
91.0766	538.0000
91.0960	527.0000
91.1155	522.0000
91.1350	463.0000
91.1544	450.0000
91.1739	455.0000
91.1933	422.0000
91.2128	463.0000
91.2322	433.0000
91.2517	441.0000
91.2712	449.0000
91.2906	459.0000
91.3101	442.0000
91.3295	411.0000
91.3490	426.0000
91.3684	394.0000
91.3879	396.0000
91.4074	356.0000
91.4268	375.0000
91.4463	394.0000
91.4657	333.0000
91.4852	354.0000
91.5046	332.0000
91.5241	333.0000
91.5436	304.0000
91.5630	305.0000
91.5825	291.0000
91.6019	298.0000
91.6214	314.0000
91.6408	259.0000
91.6603	308.0000
91.6798	284.0000
91.6992	269.0000
91.7187	277.0000
91.7381	249.0000
91.7576	270.0000
91.7770	292.0000
91.7965	240.0000
91.8160	282.0000
91.8354	267.0000
91.8549	258.0000
91.8743	275.0000
91.8938	276.0000
91.9132	241.0000
91.9327	219.0000
91.9521	265.0000
91.9716	281.0000
91.9911	294.0000
92.0105	258.0000
92.0300	275.0000
92.0494	311.0000
92.0689	266.0000
92.0883	275.0000
92.1078	250.0000
92.1273	256.0000
92.1467	267.0000
92.1662	253.0000
92.1856	253.0000
92.2051	257.0000
92.2245	275.0000
92.2440	262.0000
92.2635	244.0000
92.2829	265.0000
92.3024	240.0000
92.3218	255.0000
92.3413	259.0000
92.3607	265.0000
92.3802	250.0000
92.3997	246.0000
92.4191	255.0000
92.4386	245.0000
92.4580	256.0000
92.4775	282.0000
92.4969	232.0000
92.5164	252.0000
92.5359	223.0000
92.5553	223.0000
92.5748	262.0000
92.5942	256.0000
92.6137	249.0000
92.6331	268.0000
92.6526	248.0000
92.6721	254.0000
92.6915	251.0000
92.7110	253.0000
92.7304	223.0000
92.7499	245.0000
92.7693	285.0000
92.7888	269.0000
92.8083	250.0000
92.8277	284.0000
92.8472	269.0000
92.8666	268.0000
92.8861	227.0000
92.9055	228.0000
92.9250	241.0000
92.9445	240.0000
92.9639	253.0000
92.9834	254.0000
93.0028	247.0000
93.0223	285.0000
93.0417	230.0000
93.0612	271.0000
93.0807	292.0000
93.1001	277.0000
93.1196	281.0000
93.1390	237.0000
93.1585	262.0000
93.1779	254.0000
93.1974	270.0000
93.2169	233.0000
93.2363	252.0000
93.2558	257.0000
93.2752	246.0000
93.2947	257.0000
93.3141	269.0000
93.3336	239.0000
93.3531	260.0000
93.3725	240.0000
93.3920	261.0000
93.4114	248.0000
93.4309	273.0000
93.4503	226.0000
93.4698	248.0000
93.4893	243.0000
93.5087	250.0000
93.5282	239.0000
93.5476	250.0000
93.5671	260.0000
93.5865	272.0000
93.6060	259.0000
93.6255	265.0000
93.6449	247.0000
93.6644	288.0000
93.6838	249.0000
93.7033	236.0000
93.7227	246.0000
93.7422	253.0000
93.7617	247.0000
93.7811	261.0000
93.8006	262.0000
93.8200	238.0000
93.8395	242.0000
93.8589	246.0000
93.8784	236.0000
93.8979	258.0000
93.9173	249.0000
93.9368	243.0000
93.9562	275.0000
93.9757	242.0000
93.9951	247.0000
94.0146	250.0000
94.0341	256.0000
94.0535	248.0000
94.0730	253.0000
94.0924	256.0000
94.1119	257.0000
94.1313	243.0000
94.1508	258.0000
94.1703	256.0000
94.1897	234.0000
94.2092	267.0000
94.2286	252.0000
94.2481	255.0000
94.2675	265.0000
94.2870	271.0000
94.3065	270.0000
94.3259	251.0000
94.3454	269.0000
94.3648	250.0000
94.3843	263.0000
94.4037	248.0000
94.4232	263.0000
94.4427	267.0000
94.4621	261.0000
94.4816	263.0000
94.5010	247.0000
94.5205	299.0000
94.5399	255.0000
94.5594	242.0000
94.5789	275.0000
94.5983	244.0000
94.6178	263.0000
94.6372	218.0000
94.6567	289.0000
94.6761	249.0000
94.6956	249.0000
94.7150	275.0000
94.7345	259.0000
94.7540	256.0000
94.7734	235.0000
94.7929	282.0000
94.8123	285.0000
94.8318	272.0000
94.8512	247.0000
94.8707	283.0000
94.8902	250.0000
94.9096	263.0000
94.9291	276.0000
94.9485	239.0000
94.9680	228.0000
94.9874	287.0000
95.0069	267.0000
95.0264	264.0000
95.0458	286.0000
95.0653	264.0000
95.0847	273.0000
95.1042	235.0000
95.1236	257.0000
95.1431	241.0000
95.1626	273.0000
95.1820	229.0000
95.2015	228.0000
95.2209	260.0000
95.2404	238.0000
95.2598	262.0000
95.2793	256.0000
95.2988	254.0000
95.3182	246.0000
95.3377	247.0000
95.3571	241.0000
95.3766	258.0000
95.3960	259.0000
95.4155	257.0000
95.4350	261.0000
95.4544	253.0000
95.4739	268.0000
95.4933	254.0000
95.5128	234.0000
95.5322	301.0000
95.5517	249.0000
95.5712	250.0000
95.5906	269.0000
95.6101	251.0000
95.6295	272.0000
95.6490	281.0000
95.6684	238.0000
95.6879	240.0000
95.7074	264.0000
95.7268	254.0000
95.7463	258.0000
95.7657	243.0000
95.7852	284.0000
95.8046	281.0000
95.8241	247.0000
95.8436	270.0000
95.8630	229.0000
95.8825	263.0000
95.9019	263.0000
95.9214	266.0000
95.9408	279.0000
95.9603	246.0000
95.9798	268.0000
95.9992	266.0000
96.0187	269.0000
96.0381	271.0000
96.0576	274.0000
96.0770	269.0000
96.0965	269.0000
96.1160	302.0000
96.1354	257.0000
96.1549	283.0000
96.1743	296.0000
96.1938	259.0000
96.2132	268.0000
96.2327	311.0000
96.2522	302.0000
96.2716	305.0000
96.2911	288.0000
96.3105	304.0000
96.3300	305.0000
96.3494	353.0000
96.3689	316.0000
96.3884	342.0000
96.4078	321.0000
96.4273	308.0000
96.4467	313.0000
96.4662	371.0000
96.4856	304.0000
96.5051	310.0000
96.5246	338.0000
96.5440	309.0000
96.5635	292.0000
96.5829	288.0000
96.6024	303.0000
96.6218	319.0000
96.6413	265.0000
96.6608	326.0000
96.6802	291.0000
96.6997	303.0000
96.7191	339.0000
96.7386	300.0000
96.7580	289.0000
96.7775	276.0000
96.7970	300.0000
96.8164	297.0000
96.8359	268.0000
96.8553	282.0000
96.8748	257.0000
96.8942	288.0000
96.9137	271.0000
96.9332	277.0000
96.9526	296.0000
96.9721	284.0000
96.9915	238.0000
97.0110	269.0000
97.0304	266.0000
97.0499	250.0000
97.0694	271.0000
97.0888	263.0000
97.1083	288.0000
97.1277	236.0000
97.1472	275.0000
97.1666	249.0000
97.1861	255.0000
97.2056	238.0000
97.2250	298.0000
97.2445	247.0000
97.2639	233.0000
97.2834	280.0000
97.3028	285.0000
97.3223	250.0000
97.3418	241.0000
97.3612	265.0000
97.3807	249.0000
97.4001	260.0000
97.4196	239.0000
97.4390	253.0000
97.4585	230.0000
97.4780	257.0000
97.4974	267.0000
97.5169	252.0000
97.5363	282.0000
97.5558	227.0000
97.5752	240.0000
97.5947	232.0000
97.6141	270.0000
97.6336	263.0000
97.6531	261.0000
97.6725	236.0000
97.6920	257.0000
97.7114	251.0000
97.7309	241.0000
97.7503	254.0000
97.7698	278.0000
97.7893	252.0000
97.8087	237.0000
97.8282	264.0000
97.8476	261.0000
97.8671	249.0000
97.8865	281.0000
97.9060	258.0000
97.9255	257.0000
97.9449	245.0000
97.9644	241.0000
97.9838	226.0000
98.0033	245.0000
98.0227	231.0000
98.0422	274.0000
98.0617	264.0000
98.0811	267.0000
98.1006	260.0000
98.1200	258.0000
98.1395	262.0000
98.1589	233.0000
98.1784	244.0000
98.1979	246.0000
98.2173	247.0000
98.2368	254.0000
98.2562	265.0000
98.2757	254.0000
98.2951	240.0000
98.3146	251.0000
98.3341	237.0000
98.3535	257.0000
98.3730	229.0000
98.3924	263.0000
98.4119	235.0000
98.4313	270.0000
98.4508	251.0000
98.4703	230.0000
98.4897	237.0000
98.5092	247.0000
98.5286	237.0000
98.5481	248.0000
98.5675	238.0000
98.5870	281.0000
98.6065	229.0000
98.6259	260.0000
98.6454	269.0000
98.6648	256.0000
98.6843	247.0000
98.7037	263.0000
98.7232	267.0000
98.7427	263.0000
98.7621	232.0000
98.7816	240.0000
98.8010	282.0000
98.8205	249.0000
98.8399	271.0000
98.8594	293.0000
98.8789	249.0000
98.8983	253.0000
98.9178	260.0000
98.9372	243.0000
98.9567	263.0000
98.9761	263.0000
98.9956	278.0000
99.0151	215.0000
99.0345	264.0000
99.0540	230.0000
99.0734	253.0000
99.0929	260.0000
99.1123	284.0000
99.1318	244.0000
99.1513	229.0000
99.1707	293.0000
99.1902	240.0000
99.2096	245.0000
99.2291	248.0000
99.2485	265.0000
99.2680	249.0000
99.2875	260.0000
99.3069	265.0000
99.3264	257.0000
99.3458	254.0000
99.3653	261.0000
99.3847	267.0000
99.4042	234.0000
99.4237	259.0000
99.4431	235.0000
99.4626	241.0000
99.4820	253.0000
99.5015	244.0000
99.5209	275.0000
99.5404	263.0000
99.5599	266.0000
99.5793	245.0000
99.5988	262.0000
99.6182	231.0000
99.6377	283.0000
99.6571	272.0000
99.6766	266.0000
99.6961	259.0000
99.7155	241.0000
99.7350	264.0000
99.7544	231.0000
99.7739	253.0000
99.7933	268.0000
99.8128	301.0000
99.8323	232.0000
99.8517	273.0000
99.8712	248.0000
99.8906	251.0000
99.9101	251.0000
99.9295	254.0000
99.9490	258.0000
99.9685	266.0000
99.9879	253.0000
100.0074	254.0000
