30.0009	212.0000
30.0204	212.0000
30.0398	219.0000
30.0593	233.0000
30.0787	250.0000
30.0982	195.0000
30.1177	191.0000
30.1371	225.0000
30.1566	217.0000
30.1760	234.0000
30.1955	227.0000
30.2149	209.0000
30.2344	230.0000
30.2539	195.0000
30.2733	218.0000
30.2928	232.0000
30.3122	205.0000
30.3317	206.0000
30.3511	214.0000
30.3706	230.0000
30.3901	177.0000
30.4095	217.0000
30.4290	211.0000
30.4484	207.0000
30.4679	215.0000
30.4873	228.0000
30.5068	200.0000
30.5263	212.0000
30.5457	192.0000
30.5652	224.0000
30.5846	190.0000
30.6041	211.0000
30.6235	220.0000
30.6430	233.0000
30.6625	216.0000
30.6819	230.0000
30.7014	183.0000
30.7208	191.0000
30.7403	211.0000
30.7597	216.0000
30.7792	220.0000
30.7987	234.0000
30.8181	199.0000
30.8376	198.0000
30.8570	213.0000
30.8765	194.0000
30.8959	215.0000
30.9154	226.0000
30.9349	205.0000
30.9543	224.0000
30.9738	199.0000
30.9932	218.0000
31.0127	205.0000
31.0321	217.0000
31.0516	224.0000
31.0711	210.0000
31.0905	218.0000
31.1100	234.0000
31.1294	220.0000
31.1489	187.0000
31.1683	192.0000
31.1878	217.0000
31.2073	208.0000
31.2267	221.0000
31.2462	215.0000
31.2656	218.0000
31.2851	224.0000
31.3045	210.0000
31.3240	196.0000
31.3435	204.0000
31.3629	210.0000
31.3824	177.0000
31.4018	213.0000
31.4213	196.0000
31.4407	210.0000
31.4602	190.0000
31.4797	223.0000
31.4991	222.0000
31.5186	229.0000
31.5380	232.0000
31.5575	193.0000
31.5769	214.0000
31.5964	228.0000
31.6159	197.0000
31.6353	223.0000
31.6548	200.0000
31.6742	197.0000
31.6937	231.0000
31.7131	218.0000
31.7326	228.0000
31.7521	255.0000
31.7715	219.0000
31.7910	208.0000
31.8104	211.0000
31.8299	244.0000
31.8493	177.0000
31.8688	215.0000
31.8883	197.0000
31.9077	217.0000
31.9272	222.0000
31.9466	185.0000
31.9661	221.0000
31.9855	212.0000
32.0050	208.0000
32.0245	203.0000
32.0439	219.0000
32.0634	214.0000
32.0828	195.0000
32.1023	210.0000
32.1217	217.0000
32.1412	204.0000
32.1607	233.0000
32.1801	212.0000
32.1996	236.0000
32.2190	198.0000
32.2385	192.0000
32.2579	207.0000
32.2774	183.0000
32.2969	199.0000
32.3163	226.0000
32.3358	221.0000
32.3552	244.0000
32.3747	216.0000
32.3941	182.0000
32.4136	218.0000
32.4331	217.0000
32.4525	189.0000
32.4720	230.0000
32.4914	214.0000
32.5109	218.0000
32.5303	193.0000
32.5498	195.0000
32.5693	218.0000
32.5887	226.0000
32.6082	219.0000
32.6276	209.0000
32.6471	188.0000
32.6665	209.0000
32.6860	223.0000
32.7055	222.0000
32.7249	214.0000
32.7444	202.0000
32.7638	207.0000
32.7833	214.0000
32.8027	222.0000
32.8222	221.0000
32.8416	183.0000
32.8611	194.0000
32.8806	214.0000
32.9000	204.0000
32.9195	223.0000
32.9389	203.0000
32.9584	234.0000
32.9778	212.0000
32.9973	208.0000
33.0168	207.0000
33.0362	214.0000
33.0557	200.0000
33.0751	218.0000
33.0946	195.0000
33.1140	216.0000
33.1335	224.0000
33.1530	231.0000
33.1724	206.0000
33.1919	206.0000
33.2113	207.0000
33.2308	215.0000
33.2502	189.0000
33.2697	207.0000
33.2892	220.0000
33.3086	206.0000
33.3281	216.0000
33.3475	235.0000
33.3670	200.0000
33.3864	224.0000
33.4059	226.0000
33.4254	234.0000
33.4448	235.0000
33.4643	206.0000
33.4837	191.0000
33.5032	210.0000
33.5226	236.0000
33.5421	211.0000
33.5616	246.0000
33.5810	218.0000
33.6005	198.0000
33.6199	183.0000
33.6394	218.0000
33.6588	218.0000
33.6783	205.0000
33.6978	205.0000
33.7172	239.0000
33.7367	209.0000
33.7561	217.0000
33.7756	232.0000
33.7950	214.0000
33.8145	202.0000
33.8340	214.0000
33.8534	224.0000
33.8729	221.0000
33.8923	245.0000
33.9118	209.0000
33.9312	215.0000
33.9507	194.0000
33.9702	220.0000
33.9896	237.0000
34.0091	228.0000
34.0285	215.0000
34.0480	219.0000
34.0674	222.0000
34.0869	228.0000
34.1064	238.0000
34.1258	242.0000
34.1453	224.0000
34.1647	208.0000
34.1842	207.0000
34.2036	232.0000
34.2231	222.0000
34.2426	227.0000
34.2620	215.0000
34.2815	213.0000
34.3009	198.0000
34.3204	218.0000
34.3398	220.0000
34.3593	210.0000
34.3788	213.0000
34.3982	228.0000
34.4177	244.0000
34.4371	219.0000
34.4566	221.0000
34.4760	216.0000
34.4955	205.0000
34.5150	187.0000
34.5344	238.0000
34.5539	222.0000
34.5733	209.0000
34.5928	249.0000
34.6122	226.0000
34.6317	232.0000
34.6512	208.0000
34.6706	210.0000
34.6901	223.0000
34.7095	203.0000
34.7290	217.0000
34.7484	213.0000
34.7679	203.0000
34.7874	210.0000
34.8068	203.0000
34.8263	206.0000
34.8457	214.0000
34.8652	222.0000
34.8846	205.0000
34.9041	224.0000
34.9236	177.0000
34.9430	207.0000
34.9625	201.0000
34.9819	234.0000
35.0014	198.0000
35.0208	230.0000
35.0403	230.0000
35.0598	228.0000
35.0792	227.0000
35.0987	214.0000
35.1181	216.0000
35.1376	221.0000
35.1570	215.0000
35.1765	216.0000
35.1960	215.0000
35.2154	210.0000
35.2349	226.0000
35.2543	224.0000
35.2738	202.0000
35.2932	239.0000
35.3127	229.0000
35.3322	198.0000
35.3516	211.0000
35.3711	217.0000
35.3905	196.0000
35.4100	214.0000
35.4294	231.0000
35.4489	222.0000
35.4684	222.0000
35.4878	246.0000
35.5073	231.0000
35.5267	216.0000
35.5462	204.0000
35.5656	212.0000
35.5851	236.0000
35.6045	244.0000
35.6240	201.0000
35.6435	199.0000
35.6629	223.0000
35.6824	201.0000
35.7018	218.0000
35.7213	218.0000
35.7407	226.0000
35.7602	222.0000
35.7797	203.0000
35.7991	230.0000
35.8186	254.0000
35.8380	210.0000
35.8575	224.0000
35.8769	234.0000
35.8964	230.0000
35.9159	221.0000
35.9353	242.0000
35.9548	217.0000
35.9742	189.0000
35.9937	215.0000
36.0131	250.0000
36.0326	232.0000
36.0521	245.0000
36.0715	221.0000
36.0910	216.0000
36.1104	209.0000
36.1299	193.0000
36.1493	231.0000
36.1688	226.0000
36.1883	222.0000
36.2077	206.0000
36.2272	219.0000
36.2466	227.0000
36.2661	221.0000
36.2855	182.0000
36.3050	223.0000
36.3245	201.0000
36.3439	196.0000
36.3634	213.0000
36.3828	216.0000
36.4023	210.0000
36.4217	209.0000
36.4412	211.0000
36.4607	218.0000
36.4801	221.0000
36.4996	197.0000
36.5190	241.0000
36.5385	231.0000
36.5579	222.0000
36.5774	187.0000
36.5969	243.0000
36.6163	242.0000
36.6358	206.0000
36.6552	243.0000
36.6747	224.0000
36.6941	210.0000
36.7136	228.0000
36.7331	211.0000
36.7525	218.0000
36.7720	213.0000
36.7914	220.0000
36.8109	238.0000
36.8303	212.0000
36.8498	214.0000
36.8693	224.0000
36.8887	224.0000
36.9082	225.0000
36.9276	190.0000
36.9471	214.0000
36.9665	203.0000
36.9860	225.0000
37.0055	229.0000
37.0249	223.0000
37.0444	225.0000
37.0638	201.0000
37.0833	248.0000
37.1027	238.0000
37.1222	208.0000
37.1417	217.0000
37.1611	218.0000
37.1806	229.0000
37.2000	241.0000
37.2195	248.0000
37.2389	217.0000
37.2584	209.0000
37.2779	229.0000
37.2973	225.0000
37.3168	215.0000
37.3362	221.0000
37.3557	235.0000
37.3751	229.0000
37.3946	215.0000
37.4141	226.0000
37.4335	201.0000
37.4530	229.0000
37.4724	200.0000
37.4919	225.0000
37.5113	228.0000
37.5308	206.0000
37.5503	232.0000
37.5697	222.0000
37.5892	231.0000
37.6086	211.0000
37.6281	208.0000
37.6475	220.0000
37.6670	227.0000
37.6865	217.0000
37.7059	219.0000
37.7254	220.0000
37.7448	212.0000
37.7643	218.0000
37.7837	203.0000
37.8032	226.0000
37.8227	230.0000
37.8421	220.0000
37.8616	214.0000
37.8810	220.0000
37.9005	207.0000
37.9199	215.0000
37.9394	236.0000
37.9589	204.0000
37.9783	227.0000
37.9978	212.0000
38.0172	207.0000
38.0367	206.0000
38.0561	238.0000
38.0756	208.0000
38.0951	208.0000
38.1145	224.0000
38.1340	215.0000
38.1534	231.0000
38.1729	225.0000
38.1923	209.0000
38.2118	222.0000
38.2313	210.0000
38.2507	226.0000
38.2702	205.0000
38.2896	204.0000
38.3091	192.0000
38.3285	222.0000
38.3480	244.0000
38.3675	250.0000
38.3869	228.0000
38.4064	202.0000
38.4258	226.0000
38.4453	222.0000
38.4647	238.0000
38.4842	217.0000
38.5036	220.0000
38.5231	218.0000
38.5426	218.0000
38.5620	198.0000
38.5815	239.0000
38.6009	246.0000
38.6204	229.0000
38.6398	223.0000
38.6593	205.0000
38.6788	217.0000
38.6982	223.0000
38.7177	226.0000
38.7371	218.0000
38.7566	232.0000
38.7760	199.0000
38.7955	221.0000
38.8150	244.0000
38.8344	216.0000
38.8539	212.0000
38.8733	233.0000
38.8928	207.0000
38.9122	225.0000
38.9317	237.0000
38.9512	243.0000
38.9706	223.0000
38.9901	216.0000
39.0095	209.0000
39.0290	218.0000
39.0484	198.0000
39.0679	255.0000
39.0874	244.0000
39.1068	198.0000
39.1263	245.0000
39.1457	208.0000
39.1652	227.0000
39.1846	209.0000
39.2041	206.0000
39.2236	207.0000
39.2430	211.0000
39.2625	214.0000
39.2819	243.0000
39.3014	209.0000
39.3208	237.0000
39.3403	231.0000
39.3598	209.0000
39.3792	202.0000
39.3987	213.0000
39.4181	187.0000
39.4376	220.0000
39.4570	231.0000
39.4765	220.0000
39.4960	211.0000
39.5154	213.0000
39.5349	229.0000
39.5543	213.0000
39.5738	221.0000
39.5932	216.0000
39.6127	246.0000
39.6322	228.0000
39.6516	222.0000
39.6711	219.0000
39.6905	235.0000
39.7100	215.0000
39.7294	209.0000
39.7489	215.0000
39.7684	197.0000
39.7878	241.0000
39.8073	214.0000
39.8267	217.0000
39.8462	228.0000
39.8656	226.0000
39.8851	218.0000
39.9046	236.0000
39.9240	197.0000
39.9435	222.0000
39.9629	202.0000
39.9824	239.0000
40.0018	226.0000
40.0213	210.0000
40.0408	199.0000
40.0602	207.0000
40.0797	195.0000
40.0991	231.0000
40.1186	201.0000
40.1380	210.0000
40.1575	237.0000
40.1770	204.0000
40.1964	232.0000
40.2159	201.0000
40.2353	226.0000
40.2548	227.0000
40.2742	219.0000
40.2937	238.0000
40.3132	213.0000
40.3326	206.0000
40.3521	253.0000
40.3715	235.0000
40.3910	207.0000
40.4104	213.0000
40.4299	227.0000
40.4494	217.0000
40.4688	262.0000
40.4883	227.0000
40.5077	212.0000
40.5272	232.0000
40.5466	202.0000
40.5661	229.0000
40.5856	239.0000
40.6050	226.0000
40.6245	216.0000
40.6439	226.0000
40.6634	235.0000
40.6828	228.0000
40.7023	204.0000
40.7218	199.0000
40.7412	225.0000
40.7607	248.0000
40.7801	222.0000
40.7996	232.0000
40.8190	221.0000
40.8385	224.0000
40.8580	226.0000
40.8774	222.0000
40.8969	260.0000
40.9163	228.0000
40.9358	216.0000
40.9552	227.0000
40.9747	240.0000
40.9942	257.0000
41.0136	244.0000
41.0331	215.0000
41.0525	243.0000
41.0720	218.0000
41.0914	221.0000
41.1109	210.0000
41.1304	224.0000
41.1498	232.0000
41.1693	221.0000
41.1887	231.0000
41.2082	200.0000
41.2276	214.0000
41.2471	217.0000
41.2665	224.0000
41.2860	223.0000
41.3055	227.0000
41.3249	247.0000
41.3444	225.0000
41.3638	219.0000
41.3833	223.0000
41.4027	234.0000
41.4222	220.0000
41.4417	237.0000
41.4611	223.0000
41.4806	248.0000
41.5000	225.0000
41.5195	229.0000
41.5389	237.0000
41.5584	219.0000
41.5779	219.0000
41.5973	248.0000
41.6168	230.0000
41.6362	233.0000
41.6557	234.0000
41.6751	257.0000
41.6946	206.0000
41.7141	255.0000
41.7335	231.0000
41.7530	232.0000
41.7724	239.0000
41.7919	218.0000
41.8113	223.0000
41.8308	234.0000
41.8503	229.0000
41.8697	242.0000
41.8892	221.0000
41.9086	240.0000
41.9281	225.0000
41.9475	228.0000
41.9670	231.0000
41.9865	244.0000
42.0059	238.0000
42.0254	247.0000
42.0448	222.0000
42.0643	245.0000
42.0837	252.0000
42.1032	230.0000
42.1227	247.0000
42.1421	221.0000
42.1616	228.0000
42.1810	228.0000
42.2005	217.0000
42.2199	242.0000
42.2394	243.0000
42.2589	244.0000
42.2783	242.0000
42.2978	266.0000
42.3172	259.0000
42.3367	236.0000
42.3561	228.0000
42.3756	262.0000
42.3951	233.0000
42.4145	257.0000
42.4340	243.0000
42.4534	250.0000
42.4729	264.0000
42.4923	257.0000
42.5118	257.0000
42.5313	268.0000
42.5507	259.0000
42.5702	244.0000
42.5896	279.0000
42.6091	241.0000
42.6285	273.0000
42.6480	244.0000
42.6675	259.0000
42.6869	266.0000
42.7064	272.0000
42.7258	282.0000
42.7453	291.0000
42.7647	290.0000
42.7842	292.0000
42.8037	256.0000
42.8231	270.0000
42.8426	271.0000
42.8620	293.0000
42.8815	293.0000
42.9009	276.0000
42.9204	269.0000
42.9399	287.0000
42.9593	345.0000
42.9788	293.0000
42.9982	322.0000
43.0177	299.0000
43.0371	318.0000
43.0566	333.0000
43.0761	351.0000
43.0955	335.0000
43.1150	361.0000
43.1344	358.0000
43.1539	377.0000
43.1733	393.0000
43.1928	391.0000
43.2123	389.0000
43.2317	412.0000
43.2512	455.0000
43.2706	467.0000
43.2901	523.0000
43.3095	556.0000
43.3290	596.0000
43.3485	592.0000
43.3679	631.0000
43.3874	692.0000
43.4068	742.0000
43.4263	839.0000
43.4457	881.0000
43.4652	991.0000
43.4847	1097.0000
43.5041	1181.0000
43.5236	1281.0000
43.5430	1438.0000
43.5625	1577.0000
43.5819	1634.0000
43.6014	1761.0000
43.6209	1777.0000
43.6403	1845.0000
43.6598	1881.0000
43.6792	1860.0000
43.6987	1752.0000
43.7181	1752.0000
43.7376	1591.0000
43.7571	1478.0000
43.7765	1409.0000
43.7960	1334.0000
43.8154	1207.0000
43.8349	1195.0000
43.8543	1026.0000
43.8738	1008.0000
43.8933	846.0000
43.9127	784.0000
43.9322	764.0000
43.9516	632.0000
43.9711	614.0000
43.9905	592.0000
44.0100	533.0000
44.0295	522.0000
44.0489	515.0000
44.0684	452.0000
44.0878	445.0000
44.1073	423.0000
44.1267	386.0000
44.1462	378.0000
44.1656	381.0000
44.1851	324.0000
44.2046	382.0000
44.2240	289.0000
44.2435	337.0000
44.2629	360.0000
44.2824	308.0000
44.3018	327.0000
44.3213	325.0000
44.3408	286.0000
44.3602	285.0000
44.3797	312.0000
44.3991	289.0000
44.4186	287.0000
44.4380	281.0000
44.4575	294.0000
44.4770	303.0000
44.4964	326.0000
44.5159	253.0000
44.5353	278.0000
44.5548	269.0000
44.5742	278.0000
44.5937	265.0000
44.6132	252.0000
44.6326	263.0000
44.6521	272.0000
44.6715	267.0000
44.6910	257.0000
44.7104	280.0000
44.7299	254.0000
44.7494	234.0000
44.7688	259.0000
44.7883	251.0000
44.8077	242.0000
44.8272	271.0000
44.8466	255.0000
44.8661	254.0000
44.8856	263.0000
44.9050	213.0000
44.9245	239.0000
44.9439	249.0000
44.9634	204.0000
44.9828	246.0000
45.0023	235.0000
45.0218	257.0000
45.0412	238.0000
45.0607	231.0000
45.0801	216.0000
45.0996	218.0000
45.1190	249.0000
45.1385	226.0000
45.1580	236.0000
45.1774	233.0000
45.1969	238.0000
45.2163	227.0000
45.2358	223.0000
45.2552	236.0000
45.2747	248.0000
45.2942	222.0000
45.3136	251.0000
45.3331	221.0000
45.3525	221.0000
45.3720	257.0000
45.3914	235.0000
45.4109	259.0000
45.4304	240.0000
45.4498	246.0000
45.4693	239.0000
45.4887	244.0000
45.5082	216.0000
45.5276	238.0000
45.5471	232.0000
45.5666	240.0000
45.5860	234.0000
45.6055	222.0000
45.6249	252.0000
45.6444	211.0000
45.6638	215.0000
45.6833	242.0000
45.7028	239.0000
45.7222	240.0000
45.7417	225.0000
45.7611	203.0000
45.7806	232.0000
45.8000	242.0000
45.8195	234.0000
45.8390	247.0000
45.8584	261.0000
45.8779	235.0000
45.8973	244.0000
45.9168	247.0000
45.9362	237.0000
45.9557	222.0000
45.9752	221.0000
45.9946	250.0000
46.0141	214.0000
46.0335	258.0000
46.0530	191.0000
46.0724	243.0000
46.0919	233.0000
46.1114	249.0000
46.1308	239.0000
46.1503	239.0000
46.1697	237.0000
46.1892	224.0000
46.2086	233.0000
46.2281	230.0000
46.2476	227.0000
46.2670	243.0000
46.2865	229.0000
46.3059	250.0000
46.3254	233.0000
46.3448	216.0000
46.3643	236.0000
46.3838	233.0000
46.4032	220.0000
46.4227	263.0000
46.4421	222.0000
46.4616	225.0000
46.4810	240.0000
46.5005	253.0000
46.5200	238.0000
46.5394	207.0000
46.5589	208.0000
46.5783	237.0000
46.5978	236.0000
46.6172	234.0000
46.6367	235.0000
46.6562	227.0000
46.6756	228.0000
46.6951	218.0000
46.7145	210.0000
46.7340	205.0000
46.7534	260.0000
46.7729	251.0000
46.7924	218.0000
46.8118	212.0000
46.8313	214.0000
46.8507	249.0000
46.8702	264.0000
46.8896	257.0000
46.9091	259.0000
46.9285	280.0000
46.9480	233.0000
46.9675	216.0000
46.9869	194.0000
47.0064	239.0000
47.0258	226.0000
47.0453	232.0000
47.0647	216.0000
47.0842	248.0000
47.1037	225.0000
47.1231	205.0000
47.1426	240.0000
47.1620	203.0000
47.1815	227.0000
47.2009	225.0000
47.2204	212.0000
47.2399	219.0000
47.2593	244.0000
47.2788	230.0000
47.2982	223.0000
47.3177	252.0000
47.3371	238.0000
47.3566	234.0000
47.3761	254.0000
47.3955	221.0000
47.4150	242.0000
47.4344	233.0000
47.4539	247.0000
47.4733	251.0000
47.4928	236.0000
47.5123	249.0000
47.5317	240.0000
47.5512	251.0000
47.5706	204.0000
47.5901	204.0000
47.6095	234.0000
47.6290	212.0000
47.6485	223.0000
47.6679	235.0000
47.6874	213.0000
47.7068	229.0000
47.7263	243.0000
47.7457	232.0000
47.7652	223.0000
47.7847	212.0000
47.8041	244.0000
47.8236	264.0000
47.8430	257.0000
47.8625	230.0000
47.8819	264.0000
47.9014	245.0000
47.9209	241.0000
47.9403	250.0000
47.9598	221.0000
47.9792	243.0000
47.9987	258.0000
48.0181	210.0000
48.0376	223.0000
48.0571	241.0000
48.0765	230.0000
48.0960	240.0000
48.1154	222.0000
48.1349	231.0000
48.1543	223.0000
48.1738	222.0000
48.1933	240.0000
48.2127	225.0000
48.2322	264.0000
48.2516	232.0000
48.2711	228.0000
48.2905	234.0000
48.3100	236.0000
48.3295	218.0000
48.3489	235.0000
48.3684	216.0000
48.3878	210.0000
48.4073	231.0000
48.4267	225.0000
48.4462	229.0000
48.4657	211.0000
48.4851	236.0000
48.5046	250.0000
48.5240	202.0000
48.5435	230.0000
48.5629	244.0000
48.5824	212.0000
48.6019	251.0000
48.6213	221.0000
48.6408	247.0000
48.6602	231.0000
48.6797	253.0000
48.6991	262.0000
48.7186	265.0000
48.7381	267.0000
48.7575	251.0000
48.7770	230.0000
48.7964	250.0000
48.8159	262.0000
48.8353	257.0000
48.8548	235.0000
48.8743	252.0000
48.8937	230.0000
48.9132	265.0000
48.9326	231.0000
48.9521	218.0000
48.9715	242.0000
48.9910	230.0000
49.0105	261.0000
49.0299	235.0000
49.0494	257.0000
49.0688	240.0000
49.0883	236.0000
49.1077	252.0000
49.1272	265.0000
49.1467	241.0000
49.1661	237.0000
49.1856	227.0000
49.2050	276.0000
49.2245	268.0000
49.2439	264.0000
49.2634	257.0000
49.2829	242.0000
49.3023	236.0000
49.3218	262.0000
49.3412	243.0000
49.3607	277.0000
49.3801	245.0000
49.3996	256.0000
49.4191	249.0000
49.4385	226.0000
49.4580	261.0000
49.4774	250.0000
49.4969	290.0000
49.5163	264.0000
49.5358	253.0000
49.5553	274.0000
49.5747	268.0000
49.5942	245.0000
49.6136	268.0000
49.6331	261.0000
49.6525	277.0000
49.6720	260.0000
49.6914	256.0000
49.7109	265.0000
49.7304	305.0000
49.7498	289.0000
49.7693	260.0000
49.7887	277.0000
49.8082	315.0000
49.8276	268.0000
49.8471	331.0000
49.8666	299.0000
49.8860	322.0000
49.9055	282.0000
49.9249	298.0000
49.9444	295.0000
49.9638	303.0000
49.9833	295.0000
50.0028	309.0000
50.0222	326.0000
50.0417	314.0000
50.0611	339.0000
50.0806	328.0000
50.1000	324.0000
50.1195	370.0000
50.1390	362.0000
50.1584	373.0000
50.1779	409.0000
50.1973	390.0000
50.2168	414.0000
50.2362	413.0000
50.2557	462.0000
50.2752	432.0000
50.2946	481.0000
50.3141	539.0000
50.3335	558.0000
50.3530	574.0000
50.3724	631.0000
50.3919	625.0000
50.4114	718.0000
50.4308	779.0000
50.4503	811.0000
50.4697	912.0000
50.4892	946.0000
50.5086	1034.0000
50.5281	1077.0000
50.5476	1207.0000
50.5670	1273.0000
50.5865	1437.0000
50.6059	1423.0000
50.6254	1480.0000
50.6448	1655.0000
50.6643	1647.0000
50.6838	1624.0000
50.7032	1717.0000
50.7227	1625.0000
50.7421	1633.0000
50.7616	1542.0000
50.7810	1521.0000
50.8005	1452.0000
50.8200	1408.0000
50.8394	1248.0000
50.8589	1253.0000
50.8783	1061.0000
50.8978	1017.0000
50.9172	967.0000
50.9367	835.0000
50.9562	818.0000
50.9756	699.0000
50.9951	660.0000
51.0145	654.0000
51.0340	555.0000
51.0534	567.0000
51.0729	501.0000
51.0924	510.0000
51.1118	483.0000
51.1313	437.0000
51.1507	395.0000
51.1702	407.0000
51.1896	394.0000
51.2091	416.0000
51.2286	337.0000
51.2480	356.0000
51.2675	335.0000
51.2869	359.0000
51.3064	322.0000
51.3258	347.0000
51.3453	314.0000
51.3648	291.0000
51.3842	277.0000
51.4037	304.0000
51.4231	277.0000
51.4426	292.0000
51.4620	255.0000
51.4815	309.0000
51.5010	278.0000
51.5204	297.0000
51.5399	311.0000
51.5593	275.0000
51.5788	258.0000
51.5982	283.0000
51.6177	266.0000
51.6372	236.0000
51.6566	257.0000
51.6761	274.0000
51.6955	249.0000
51.7150	266.0000
51.7344	277.0000
51.7539	268.0000
51.7734	253.0000
51.7928	240.0000
51.8123	252.0000
51.8317	245.0000
51.8512	249.0000
51.8706	269.0000
51.8901	260.0000
51.9096	228.0000
51.9290	261.0000
51.9485	232.0000
51.9679	244.0000
51.9874	257.0000
52.0068	267.0000
52.0263	233.0000
52.0458	224.0000
52.0652	242.0000
52.0847	250.0000
52.1041	246.0000
52.1236	230.0000
52.1430	254.0000
52.1625	242.0000
52.1820	220.0000
52.2014	231.0000
52.2209	245.0000
52.2403	235.0000
52.2598	198.0000
52.2792	218.0000
52.2987	221.0000
52.3182	254.0000
52.3376	232.0000
52.3571	246.0000
52.3765	242.0000
52.3960	238.0000
52.4154	249.0000
52.4349	211.0000
52.4544	238.0000
52.4738	246.0000
52.4933	233.0000
52.5127	205.0000
52.5322	229.0000
52.5516	238.0000
52.5711	242.0000
52.5905	213.0000
52.6100	215.0000
52.6295	224.0000
52.6489	230.0000
52.6684	216.0000
52.6878	252.0000
52.7073	232.0000
52.7267	224.0000
52.7462	218.0000
52.7657	237.0000
52.7851	230.0000
52.8046	227.0000
52.8240	226.0000
52.8435	246.0000
52.8629	225.0000
52.8824	234.0000
52.9019	218.0000
52.9213	217.0000
52.9408	219.0000
52.9602	217.0000
52.9797	220.0000
52.9991	239.0000
53.0186	249.0000
53.0381	216.0000
53.0575	242.0000
53.0770	219.0000
53.0964	211.0000
53.1159	222.0000
53.1353	231.0000
53.1548	223.0000
53.1743	222.0000
53.1937	219.0000
53.2132	229.0000
53.2326	226.0000
53.2521	215.0000
53.2715	250.0000
53.2910	218.0000
53.3105	252.0000
53.3299	207.0000
53.3494	225.0000
53.3688	242.0000
53.3883	238.0000
53.4077	228.0000
53.4272	240.0000
53.4467	232.0000
53.4661	211.0000
53.4856	203.0000
53.5050	222.0000
53.5245	221.0000
53.5439	243.0000
53.5634	229.0000
53.5829	233.0000
53.6023	254.0000
53.6218	240.0000
53.6412	215.0000
53.6607	219.0000
53.6801	213.0000
53.6996	221.0000
53.7191	226.0000
53.7385	225.0000
53.7580	231.0000
53.7774	235.0000
53.7969	228.0000
53.8163	214.0000
53.8358	210.0000
53.8553	213.0000
53.8747	235.0000
53.8942	214.0000
53.9136	240.0000
53.9331	241.0000
53.9525	222.0000
53.9720	224.0000
53.9915	239.0000
54.0109	206.0000
54.0304	214.0000
54.0498	234.0000
54.0693	198.0000
54.0887	219.0000
54.1082	223.0000
54.1277	234.0000
54.1471	222.0000
54.1666	213.0000
54.1860	224.0000
54.2055	267.0000
54.2249	227.0000
54.2444	211.0000
54.2639	217.0000
54.2833	222.0000
54.3028	218.0000
54.3222	238.0000
54.3417	212.0000
54.3611	236.0000
54.3806	211.0000
54.4001	231.0000
54.4195	230.0000
54.4390	202.0000
54.4584	231.0000
54.4779	219.0000
54.4973	239.0000
54.5168	212.0000
54.5363	214.0000
54.5557	229.0000
54.5752	226.0000
54.5946	217.0000
54.6141	223.0000
54.6335	189.0000
54.6530	215.0000
54.6725	230.0000
54.6919	219.0000
54.7114	231.0000
54.7308	250.0000
54.7503	200.0000
54.7697	245.0000
54.7892	228.0000
54.8087	216.0000
54.8281	200.0000
54.8476	207.0000
54.8670	221.0000
54.8865	220.0000
54.9059	227.0000
54.9254	238.0000
54.9449	219.0000
54.9643	201.0000
54.9838	202.0000
55.0032	212.0000
55.0227	225.0000
55.0421	248.0000
55.0616	213.0000
55.0811	209.0000
55.1005	197.0000
55.1200	220.0000
55.1394	249.0000
55.1589	217.0000
55.1783	212.0000
55.1978	181.0000
55.2173	213.0000
55.2367	233.0000
55.2562	220.0000
55.2756	215.0000
55.2951	224.0000
55.3145	238.0000
55.3340	204.0000
55.3534	245.0000
55.3729	229.0000
55.3924	212.0000
55.4118	215.0000
55.4313	238.0000
55.4507	236.0000
55.4702	220.0000
55.4896	213.0000
55.5091	226.0000
55.5286	246.0000
55.5480	214.0000
55.5675	256.0000
55.5869	230.0000
55.6064	205.0000
55.6258	242.0000
55.6453	225.0000
55.6648	223.0000
55.6842	206.0000
55.7037	222.0000
55.7231	220.0000
55.7426	230.0000
55.7620	204.0000
55.7815	255.0000
55.8010	216.0000
55.8204	216.0000
55.8399	181.0000
55.8593	223.0000
55.8788	200.0000
55.8982	208.0000
55.9177	222.0000
55.9372	229.0000
55.9566	215.0000
55.9761	226.0000
55.9955	227.0000
56.0150	207.0000
56.0344	216.0000
56.0539	241.0000
56.0734	202.0000
56.0928	253.0000
56.1123	223.0000
56.1317	225.0000
56.1512	220.0000
56.1706	203.0000
56.1901	234.0000
56.2096	181.0000
56.2290	234.0000
56.2485	218.0000
56.2679	224.0000
56.2874	238.0000
56.3068	234.0000
56.3263	205.0000
56.3458	216.0000
56.3652	202.0000
56.3847	242.0000
56.4041	218.0000
56.4236	241.0000
56.4430	210.0000
56.4625	207.0000
56.4820	199.0000
56.5014	223.0000
56.5209	223.0000
56.5403	243.0000
56.5598	247.0000
56.5792	213.0000
56.5987	247.0000
56.6182	212.0000
56.6376	224.0000
56.6571	225.0000
56.6765	213.0000
56.6960	232.0000
56.7154	217.0000
56.7349	230.0000
56.7544	192.0000
56.7738	222.0000
56.7933	235.0000
56.8127	204.0000
56.8322	234.0000
56.8516	215.0000
56.8711	247.0000
56.8906	276.0000
56.9100	215.0000
56.9295	205.0000
56.9489	237.0000
56.9684	236.0000
56.9878	224.0000
57.0073	221.0000
57.0268	210.0000
57.0462	219.0000
57.0657	210.0000
57.0851	224.0000
57.1046	221.0000
57.1240	228.0000
57.1435	219.0000
57.1630	229.0000
57.1824	223.0000
57.2019	221.0000
57.2213	200.0000
57.2408	206.0000
57.2602	222.0000
57.2797	241.0000
57.2992	228.0000
57.3186	216.0000
57.3381	229.0000
57.3575	204.0000
57.3770	228.0000
57.3964	245.0000
57.4159	237.0000
57.4354	229.0000
57.4548	201.0000
57.4743	216.0000
57.4937	207.0000
57.5132	241.0000
57.5326	232.0000
57.5521	222.0000
57.5716	218.0000
57.5910	188.0000
57.6105	240.0000
57.6299	209.0000
57.6494	218.0000
57.6688	225.0000
57.6883	237.0000
57.7078	230.0000
57.7272	247.0000
57.7467	211.0000
57.7661	226.0000
57.7856	197.0000
57.8050	218.0000
57.8245	250.0000
57.8440	200.0000
57.8634	210.0000
57.8829	200.0000
57.9023	199.0000
57.9218	224.0000
57.9412	221.0000
57.9607	233.0000
57.9802	202.0000
57.9996	237.0000
58.0191	193.0000
58.0385	232.0000
58.0580	224.0000
58.0774	211.0000
58.0969	210.0000
58.1163	203.0000
58.1358	221.0000
58.1553	185.0000
58.1747	236.0000
58.1942	215.0000
58.2136	226.0000
58.2331	249.0000
58.2525	230.0000
58.2720	223.0000
58.2915	222.0000
58.3109	206.0000
58.3304	227.0000
58.3498	236.0000
58.3693	222.0000
58.3887	250.0000
58.4082	212.0000
58.4277	220.0000
58.4471	201.0000
58.4666	233.0000
58.4860	228.0000
58.5055	223.0000
58.5249	225.0000
58.5444	222.0000
58.5639	228.0000
58.5833	221.0000
58.6028	232.0000
58.6222	192.0000
58.6417	214.0000
58.6611	210.0000
58.6806	205.0000
58.7001	210.0000
58.7195	201.0000
58.7390	219.0000
58.7584	203.0000
58.7779	233.0000
58.7973	220.0000
58.8168	232.0000
58.8363	217.0000
58.8557	229.0000
58.8752	233.0000
58.8946	210.0000
58.9141	199.0000
58.9335	205.0000
58.9530	229.0000
58.9725	198.0000
58.9919	213.0000
59.0114	232.0000
59.0308	226.0000
59.0503	203.0000
59.0697	214.0000
59.0892	222.0000
59.1087	218.0000
59.1281	228.0000
59.1476	221.0000
59.1670	217.0000
59.1865	205.0000
59.2059	194.0000
59.2254	215.0000
59.2449	228.0000
59.2643	211.0000
59.2838	227.0000
59.3032	234.0000
59.3227	217.0000
59.3421	210.0000
59.3616	210.0000
59.3811	202.0000
59.4005	238.0000
59.4200	227.0000
59.4394	217.0000
59.4589	206.0000
59.4783	227.0000
59.4978	214.0000
59.5173	200.0000
59.5367	223.0000
59.5562	205.0000
59.5756	229.0000
59.5951	230.0000
59.6145	224.0000
59.6340	227.0000
59.6535	210.0000
59.6729	217.0000
59.6924	199.0000
59.7118	229.0000
59.7313	220.0000
59.7507	247.0000
59.7702	227.0000
59.7897	213.0000
59.8091	230.0000
59.8286	238.0000
59.8480	224.0000
59.8675	222.0000
59.8869	216.0000
59.9064	218.0000
59.9259	218.0000
59.9453	237.0000
59.9648	236.0000
59.9842	227.0000
60.0037	235.0000
60.0231	221.0000
60.0426	215.0000
60.0621	237.0000
60.0815	197.0000
60.1010	229.0000
60.1204	211.0000
60.1399	227.0000
60.1593	212.0000
60.1788	223.0000
60.1983	221.0000
60.2177	240.0000
60.2372	246.0000
60.2566	235.0000
60.2761	223.0000
60.2955	219.0000
60.3150	220.0000
60.3345	210.0000
60.3539	220.0000
60.3734	234.0000
60.3928	235.0000
60.4123	233.0000
60.4317	185.0000
60.4512	229.0000
60.4707	207.0000
60.4901	214.0000
60.5096	214.0000
60.5290	239.0000
60.5485	209.0000
60.5679	232.0000
60.5874	185.0000
60.6069	234.0000
60.6263	244.0000
60.6458	219.0000
60.6652	216.0000
60.6847	245.0000
60.7041	249.0000
60.7236	221.0000
60.7431	217.0000
60.7625	203.0000
60.7820	207.0000
60.8014	240.0000
60.8209	242.0000
60.8403	204.0000
60.8598	232.0000
60.8793	197.0000
60.8987	236.0000
60.9182	230.0000
60.9376	198.0000
60.9571	203.0000
60.9765	211.0000
60.9960	205.0000
61.0154	227.0000
61.0349	234.0000
61.0544	222.0000
61.0738	222.0000
61.0933	216.0000
61.1127	195.0000
61.1322	241.0000
61.1516	189.0000
61.1711	217.0000
61.1906	230.0000
61.2100	204.0000
61.2295	200.0000
61.2489	197.0000
61.2684	237.0000
61.2878	209.0000
61.3073	205.0000
61.3268	210.0000
61.3462	223.0000
61.3657	218.0000
61.3851	206.0000
61.4046	208.0000
61.4240	176.0000
61.4435	210.0000
61.4630	233.0000
61.4824	217.0000
61.5019	223.0000
61.5213	198.0000
61.5408	230.0000
61.5602	241.0000
61.5797	228.0000
61.5992	211.0000
61.6186	231.0000
61.6381	202.0000
61.6575	226.0000
61.6770	230.0000
61.6964	214.0000
61.7159	227.0000
61.7354	217.0000
61.7548	249.0000
61.7743	208.0000
61.7937	206.0000
61.8132	175.0000
61.8326	252.0000
61.8521	230.0000
61.8716	235.0000
61.8910	210.0000
61.9105	215.0000
61.9299	193.0000
61.9494	224.0000
61.9688	202.0000
61.9883	200.0000
62.0078	220.0000
62.0272	198.0000
62.0467	202.0000
62.0661	214.0000
62.0856	196.0000
62.1050	226.0000
62.1245	232.0000
62.1440	193.0000
62.1634	234.0000
62.1829	238.0000
62.2023	200.0000
62.2218	207.0000
62.2412	240.0000
62.2607	195.0000
62.2802	229.0000
62.2996	215.0000
62.3191	224.0000
62.3385	231.0000
62.3580	211.0000
62.3774	223.0000
62.3969	198.0000
62.4164	206.0000
62.4358	220.0000
62.4553	229.0000
62.4747	231.0000
62.4942	209.0000
62.5136	229.0000
62.5331	212.0000
62.5526	197.0000
62.5720	205.0000
62.5915	234.0000
62.6109	224.0000
62.6304	248.0000
62.6498	199.0000
62.6693	225.0000
62.6888	195.0000
62.7082	202.0000
62.7277	219.0000
62.7471	224.0000
62.7666	219.0000
62.7860	217.0000
62.8055	210.0000
62.8250	202.0000
62.8444	239.0000
62.8639	212.0000
62.8833	245.0000
62.9028	204.0000
62.9222	205.0000
62.9417	233.0000
62.9612	218.0000
62.9806	207.0000
63.0001	219.0000
63.0195	226.0000
63.0390	213.0000
63.0584	203.0000
63.0779	233.0000
63.0974	221.0000
63.1168	228.0000
63.1363	262.0000
63.1557	218.0000
63.1752	244.0000
63.1946	249.0000
63.2141	216.0000
63.2336	209.0000
63.2530	206.0000
63.2725	219.0000
63.2919	221.0000
63.3114	243.0000
63.3308	205.0000
63.3503	218.0000
63.3698	234.0000
63.3892	221.0000
63.4087	224.0000
63.4281	209.0000
63.4476	199.0000
63.4670	232.0000
63.4865	244.0000
63.5060	201.0000
63.5254	226.0000
63.5449	238.0000
63.5643	209.0000
63.5838	241.0000
63.6032	217.0000
63.6227	209.0000
63.6422	207.0000
63.6616	204.0000
63.6811	193.0000
63.7005	229.0000
63.7200	221.0000
63.7394	222.0000
63.7589	205.0000
63.7783	226.0000
63.7978	213.0000
63.8173	203.0000
63.8367	218.0000
63.8562	234.0000
63.8756	192.0000
63.8951	191.0000
63.9145	222.0000
63.9340	227.0000
63.9535	207.0000
63.9729	215.0000
63.9924	221.0000
64.0118	205.0000
64.0313	240.0000
64.0507	203.0000
64.0702	204.0000
64.0897	227.0000
64.1091	217.0000
64.1286	253.0000
64.1480	191.0000
64.1675	215.0000
64.1869	192.0000
64.2064	224.0000
64.2259	204.0000
64.2453	225.0000
64.2648	215.0000
64.2842	230.0000
64.3037	199.0000
64.3231	234.0000
64.3426	235.0000
64.3621	232.0000
64.3815	200.0000
64.4010	228.0000
64.4204	228.0000
64.4399	218.0000
64.4593	203.0000
64.4788	205.0000
64.4983	219.0000
64.5177	197.0000
64.5372	214.0000
64.5566	230.0000
64.5761	183.0000
64.5955	185.0000
64.6150	216.0000
64.6345	213.0000
64.6539	243.0000
64.6734	222.0000
64.6928	220.0000
64.7123	213.0000
64.7317	233.0000
64.7512	229.0000
64.7707	240.0000
64.7901	227.0000
64.8096	224.0000
64.8290	233.0000
64.8485	242.0000
64.8679	234.0000
64.8874	211.0000
64.9069	219.0000
64.9263	210.0000
64.9458	226.0000
64.9652	208.0000
64.9847	202.0000
65.0041	227.0000
65.0236	211.0000
65.0431	253.0000
65.0625	235.0000
65.0820	204.0000
65.1014	211.0000
65.1209	219.0000
65.1403	200.0000
65.1598	237.0000
65.1793	242.0000
65.1987	215.0000
65.2182	228.0000
65.2376	236.0000
65.2571	201.0000
65.2765	213.0000
65.2960	227.0000
65.3155	208.0000
65.3349	219.0000
65.3544	244.0000
65.3738	223.0000
65.3933	187.0000
65.4127	229.0000
65.4322	222.0000
65.4517	195.0000
65.4711	227.0000
65.4906	215.0000
65.5100	233.0000
65.5295	196.0000
65.5489	190.0000
65.5684	226.0000
65.5879	192.0000
65.6073	219.0000
65.6268	221.0000
65.6462	224.0000
65.6657	212.0000
65.6851	227.0000
65.7046	214.0000
65.7241	203.0000
65.7435	194.0000
65.7630	228.0000
65.7824	204.0000
65.8019	217.0000
65.8213	216.0000
65.8408	238.0000
65.8603	203.0000
65.8797	219.0000
65.8992	224.0000
65.9186	203.0000
65.9381	226.0000
65.9575	188.0000
65.9770	203.0000
65.9965	213.0000
66.0159	226.0000
66.0354	225.0000
66.0548	218.0000
66.0743	241.0000
66.0937	212.0000
66.1132	216.0000
66.1327	206.0000
66.1521	216.0000
66.1716	228.0000
66.1910	232.0000
66.2105	212.0000
66.2299	213.0000
66.2494	211.0000
66.2689	211.0000
66.2883	258.0000
66.3078	203.0000
66.3272	233.0000
66.3467	217.0000
66.3661	234.0000
66.3856	233.0000
66.4051	224.0000
66.4245	235.0000
66.4440	215.0000
66.4634	202.0000
66.4829	187.0000
66.5023	224.0000
66.5218	245.0000
66.5413	218.0000
66.5607	225.0000
66.5802	219.0000
66.5996	206.0000
66.6191	192.0000
66.6385	229.0000
66.6580	202.0000
66.6774	235.0000
66.6969	184.0000
66.7164	221.0000
66.7358	202.0000
66.7553	219.0000
66.7747	226.0000
66.7942	225.0000
66.8136	227.0000
66.8331	223.0000
66.8526	218.0000
66.8720	228.0000
66.8915	185.0000
66.9109	216.0000
66.9304	238.0000
66.9498	215.0000
66.9693	222.0000
66.9888	200.0000
67.0082	201.0000
67.0277	209.0000
67.0471	241.0000
67.0666	228.0000
67.0860	224.0000
67.1055	207.0000
67.1250	204.0000
67.1444	228.0000
67.1639	229.0000
67.1833	224.0000
67.2028	197.0000
67.2222	195.0000
67.2417	203.0000
67.2612	231.0000
67.2806	199.0000
67.3001	214.0000
67.3195	206.0000
67.3390	231.0000
67.3584	217.0000
67.3779	226.0000
67.3974	214.0000
67.4168	216.0000
67.4363	225.0000
67.4557	211.0000
67.4752	202.0000
67.4946	180.0000
67.5141	218.0000
67.5336	238.0000
67.5530	229.0000
67.5725	198.0000
67.5919	228.0000
67.6114	202.0000
67.6308	238.0000
67.6503	215.0000
67.6698	227.0000
67.6892	215.0000
67.7087	191.0000
67.7281	225.0000
67.7476	230.0000
67.7670	208.0000
67.7865	196.0000
67.8060	247.0000
67.8254	200.0000
67.8449	248.0000
67.8643	226.0000
67.8838	222.0000
67.9032	206.0000
67.9227	206.0000
67.9422	204.0000
67.9616	238.0000
67.9811	195.0000
68.0005	236.0000
68.0200	221.0000
68.0394	222.0000
68.0589	230.0000
68.0784	213.0000
68.0978	220.0000
68.1173	211.0000
68.1367	210.0000
68.1562	205.0000
68.1756	209.0000
68.1951	187.0000
68.2146	193.0000
68.2340	219.0000
68.2535	223.0000
68.2729	213.0000
68.2924	188.0000
68.3118	226.0000
68.3313	231.0000
68.3508	203.0000
68.3702	193.0000
68.3897	183.0000
68.4091	215.0000
68.4286	216.0000
68.4480	234.0000
68.4675	177.0000
68.4870	225.0000
68.5064	200.0000
68.5259	198.0000
68.5453	231.0000
68.5648	217.0000
68.5842	210.0000
68.6037	211.0000
68.6232	221.0000
68.6426	232.0000
68.6621	222.0000
68.6815	205.0000
68.7010	235.0000
68.7204	216.0000
68.7399	201.0000
68.7594	214.0000
68.7788	219.0000
68.7983	221.0000
68.8177	226.0000
68.8372	235.0000
68.8566	207.0000
68.8761	241.0000
68.8956	229.0000
68.9150	208.0000
68.9345	208.0000
68.9539	206.0000
68.9734	230.0000
68.9928	209.0000
69.0123	223.0000
69.0318	249.0000
69.0512	207.0000
69.0707	200.0000
69.0901	218.0000
69.1096	230.0000
69.1290	234.0000
69.1485	214.0000
69.1680	204.0000
69.1874	219.0000
69.2069	211.0000
69.2263	224.0000
69.2458	242.0000
69.2652	222.0000
69.2847	231.0000
69.3042	226.0000
69.3236	221.0000
69.3431	225.0000
69.3625	192.0000
69.3820	233.0000
69.4014	184.0000
69.4209	232.0000
69.4403	236.0000
69.4598	222.0000
69.4793	194.0000
69.4987	210.0000
69.5182	226.0000
69.5376	237.0000
69.5571	203.0000
69.5765	225.0000
69.5960	249.0000
69.6155	222.0000
69.6349	210.0000
69.6544	213.0000
69.6738	218.0000
69.6933	231.0000
69.7127	238.0000
69.7322	219.0000
69.7517	211.0000
69.7711	220.0000
69.7906	234.0000
69.8100	223.0000
69.8295	214.0000
69.8489	240.0000
69.8684	237.0000
69.8879	207.0000
69.9073	201.0000
69.9268	207.0000
69.9462	221.0000
69.9657	227.0000
69.9851	237.0000
70.0046	192.0000
70.0241	213.0000
70.0435	207.0000
70.0630	201.0000
70.0824	218.0000
70.1019	237.0000
70.1213	223.0000
70.1408	206.0000
70.1603	235.0000
70.1797	197.0000
70.1992	220.0000
70.2186	225.0000
70.2381	209.0000
70.2575	206.0000
70.2770	223.0000
70.2965	215.0000
70.3159	254.0000
70.3354	212.0000
70.3548	214.0000
70.3743	210.0000
70.3937	236.0000
70.4132	208.0000
70.4327	212.0000
70.4521	199.0000
70.4716	190.0000
70.4910	215.0000
70.5105	211.0000
70.5299	220.0000
70.5494	219.0000
70.5689	218.0000
70.5883	227.0000
70.6078	217.0000
70.6272	235.0000
70.6467	221.0000
70.6661	194.0000
70.6856	221.0000
70.7051	236.0000
70.7245	219.0000
70.7440	188.0000
70.7634	223.0000
70.7829	221.0000
70.8023	204.0000
70.8218	213.0000
70.8413	264.0000
70.8607	214.0000
70.8802	216.0000
70.8996	232.0000
70.9191	227.0000
70.9385	211.0000
70.9580	229.0000
70.9775	217.0000
70.9969	212.0000
71.0164	215.0000
71.0358	201.0000
71.0553	223.0000
71.0747	217.0000
71.0942	230.0000
71.1137	224.0000
71.1331	200.0000
71.1526	213.0000
71.1720	217.0000
71.1915	215.0000
71.2109	201.0000
71.2304	237.0000
71.2499	189.0000
71.2693	233.0000
71.2888	209.0000
71.3082	200.0000
71.3277	220.0000
71.3471	225.0000
71.3666	170.0000
71.3861	229.0000
71.4055	212.0000
71.4250	244.0000
71.4444	232.0000
71.4639	224.0000
71.4833	232.0000
71.5028	222.0000
71.5223	221.0000
71.5417	218.0000
71.5612	216.0000
71.5806	199.0000
71.6001	216.0000
71.6195	189.0000
71.6390	208.0000
71.6585	210.0000
71.6779	221.0000
71.6974	243.0000
71.7168	229.0000
71.7363	245.0000
71.7557	219.0000
71.7752	218.0000
71.7947	203.0000
71.8141	242.0000
71.8336	189.0000
71.8530	206.0000
71.8725	217.0000
71.8919	216.0000
71.9114	210.0000
71.9309	208.0000
71.9503	226.0000
71.9698	234.0000
71.9892	225.0000
72.0087	247.0000
72.0281	218.0000
72.0476	192.0000
72.0671	205.0000
72.0865	210.0000
72.1060	218.0000
72.1254	203.0000
72.1449	243.0000
72.1643	236.0000
72.1838	211.0000
72.2032	234.0000
72.2227	236.0000
72.2422	236.0000
72.2616	251.0000
72.2811	208.0000
72.3005	177.0000
72.3200	198.0000
72.3394	216.0000
72.3589	207.0000
72.3784	226.0000
72.3978	233.0000
72.4173	211.0000
72.4367	229.0000
72.4562	231.0000
72.4756	233.0000
72.4951	219.0000
72.5146	202.0000
72.5340	232.0000
72.5535	224.0000
72.5729	219.0000
72.5924	230.0000
72.6118	204.0000
72.6313	207.0000
72.6508	220.0000
72.6702	253.0000
72.6897	222.0000
72.7091	216.0000
72.7286	181.0000
72.7480	239.0000
72.7675	233.0000
72.7870	239.0000
72.8064	207.0000
72.8259	230.0000
72.8453	218.0000
72.8648	226.0000
72.8842	223.0000
72.9037	215.0000
72.9232	226.0000
72.9426	208.0000
72.9621	229.0000
72.9815	220.0000
73.0010	220.0000
73.0204	234.0000
73.0399	236.0000
73.0594	221.0000
73.0788	191.0000
73.0983	235.0000
73.1177	206.0000
73.1372	214.0000
73.1566	207.0000
73.1761	250.0000
73.1956	243.0000
73.2150	251.0000
73.2345	204.0000
73.2539	248.0000
73.2734	207.0000
73.2928	204.0000
73.3123	212.0000
73.3318	238.0000
73.3512	229.0000
73.3707	212.0000
73.3901	225.0000
73.4096	233.0000
73.4290	240.0000
73.4485	233.0000
73.4680	208.0000
73.4874	206.0000
73.5069	225.0000
73.5263	217.0000
73.5458	237.0000
73.5652	235.0000
73.5847	199.0000
73.6042	228.0000
73.6236	219.0000
73.6431	247.0000
73.6625	182.0000
73.6820	208.0000
73.7014	213.0000
73.7209	200.0000
73.7404	217.0000
73.7598	233.0000
73.7793	236.0000
73.7987	228.0000
73.8182	217.0000
73.8376	241.0000
73.8571	236.0000
73.8766	211.0000
73.8960	230.0000
73.9155	234.0000
73.9349	246.0000
73.9544	224.0000
73.9738	210.0000
73.9933	226.0000
74.0128	233.0000
74.0322	233.0000
74.0517	248.0000
74.0711	258.0000
74.0906	223.0000
74.1100	252.0000
74.1295	233.0000
74.1490	213.0000
74.1684	228.0000
74.1879	230.0000
74.2073	264.0000
74.2268	216.0000
74.2462	215.0000
74.2657	251.0000
74.2852	240.0000
74.3046	263.0000
74.3241	257.0000
74.3435	238.0000
74.3630	255.0000
74.3824	256.0000
74.4019	242.0000
74.4214	237.0000
74.4408	245.0000
74.4603	243.0000
74.4797	258.0000
74.4992	253.0000
74.5186	266.0000
74.5381	308.0000
74.5576	268.0000
74.5770	232.0000
74.5965	245.0000
74.6159	287.0000
74.6354	292.0000
74.6548	259.0000
74.6743	287.0000
74.6938	274.0000
74.7132	292.0000
74.7327	253.0000
74.7521	277.0000
74.7716	294.0000
74.7910	259.0000
74.8105	261.0000
74.8300	286.0000
74.8494	275.0000
74.8689	292.0000
74.8883	266.0000
74.9078	272.0000
74.9272	233.0000
74.9467	273.0000
74.9662	271.0000
74.9856	235.0000
75.0051	261.0000
75.0245	243.0000
75.0440	252.0000
75.0634	270.0000
75.0829	279.0000
75.1023	220.0000
75.1218	243.0000
75.1413	206.0000
75.1607	240.0000
75.1802	232.0000
75.1996	259.0000
75.2191	245.0000
75.2385	222.0000
75.2580	253.0000
75.2775	213.0000
75.2969	240.0000
75.3164	221.0000
75.3358	240.0000
75.3553	249.0000
75.3747	250.0000
75.3942	226.0000
75.4137	229.0000
75.4331	243.0000
75.4526	226.0000
75.4720	257.0000
75.4915	247.0000
75.5109	245.0000
75.5304	224.0000
75.5499	227.0000
75.5693	207.0000
75.5888	249.0000
75.6082	237.0000
75.6277	192.0000
75.6471	217.0000
75.6666	246.0000
75.6861	236.0000
75.7055	242.0000
75.7250	206.0000
75.7444	228.0000
75.7639	245.0000
75.7833	214.0000
75.8028	237.0000
75.8223	206.0000
75.8417	219.0000
75.8612	211.0000
75.8806	196.0000
75.9001	242.0000
75.9195	219.0000
75.9390	227.0000
75.9585	226.0000
75.9779	215.0000
75.9974	228.0000
76.0168	224.0000
76.0363	215.0000
76.0557	236.0000
76.0752	237.0000
76.0947	208.0000
76.1141	217.0000
76.1336	226.0000
76.1530	214.0000
76.1725	227.0000
76.1919	227.0000
76.2114	215.0000
76.2309	237.0000
76.2503	223.0000
76.2698	251.0000
76.2892	253.0000
76.3087	195.0000
76.3281	229.0000
76.3476	236.0000
76.3671	230.0000
76.3865	210.0000
76.4060	239.0000
76.4254	225.0000
76.4449	252.0000
76.4643	254.0000
76.4838	211.0000
76.5033	206.0000
76.5227	219.0000
76.5422	213.0000
76.5616	228.0000
76.5811	222.0000
76.6005	212.0000
76.6200	205.0000
76.6395	219.0000
76.6589	220.0000
76.6784	226.0000
76.6978	198.0000
76.7173	199.0000
76.7367	223.0000
76.7562	218.0000
76.7757	193.0000
76.7951	212.0000
76.8146	209.0000
76.8340	236.0000
76.8535	207.0000
76.8729	208.0000
76.8924	198.0000
76.9119	211.0000
76.9313	224.0000
76.9508	213.0000
76.9702	225.0000
76.9897	211.0000
77.0091	201.0000
77.0286	222.0000
77.0481	200.0000
77.0675	221.0000
77.0870	222.0000
77.1064	239.0000
77.1259	214.0000
77.1453	249.0000
77.1648	210.0000
77.1843	230.0000
77.2037	192.0000
77.2232	215.0000
77.2426	210.0000
77.2621	202.0000
77.2815	210.0000
77.3010	194.0000
77.3205	238.0000
77.3399	245.0000
77.3594	206.0000
77.3788	232.0000
77.3983	258.0000
77.4177	205.0000
77.4372	225.0000
77.4567	229.0000
77.4761	221.0000
77.4956	211.0000
77.5150	239.0000
77.5345	217.0000
77.5539	213.0000
77.5734	211.0000
77.5929	209.0000
77.6123	233.0000
77.6318	204.0000
77.6512	219.0000
77.6707	225.0000
77.6901	211.0000
77.7096	202.0000
77.7291	221.0000
77.7485	186.0000
77.7680	231.0000
77.7874	226.0000
77.8069	243.0000
77.8263	189.0000
77.8458	209.0000
77.8652	208.0000
77.8847	248.0000
77.9042	222.0000
77.9236	214.0000
77.9431	216.0000
77.9625	190.0000
77.9820	222.0000
78.0014	241.0000
78.0209	231.0000
78.0404	214.0000
78.0598	215.0000
78.0793	214.0000
78.0987	225.0000
78.1182	239.0000
78.1376	202.0000
78.1571	224.0000
78.1766	193.0000
78.1960	222.0000
78.2155	222.0000
78.2349	231.0000
78.2544	201.0000
78.2738	231.0000
78.2933	246.0000
78.3128	223.0000
78.3322	239.0000
78.3517	236.0000
78.3711	223.0000
78.3906	232.0000
78.4100	204.0000
78.4295	224.0000
78.4490	248.0000
78.4684	211.0000
78.4879	200.0000
78.5073	219.0000
78.5268	209.0000
78.5462	234.0000
78.5657	224.0000
78.5852	207.0000
78.6046	218.0000
78.6241	189.0000
78.6435	199.0000
78.6630	218.0000
78.6824	216.0000
78.7019	196.0000
78.7214	220.0000
78.7408	226.0000
78.7603	232.0000
78.7797	209.0000
78.7992	228.0000
78.8186	223.0000
78.8381	198.0000
78.8576	244.0000
78.8770	224.0000
78.8965	202.0000
78.9159	243.0000
78.9354	187.0000
78.9548	192.0000
78.9743	223.0000
78.9938	216.0000
79.0132	187.0000
79.0327	223.0000
79.0521	219.0000
79.0716	221.0000
79.0910	206.0000
79.1105	203.0000
79.1300	219.0000
79.1494	215.0000
79.1689	219.0000
79.1883	186.0000
79.2078	222.0000
79.2272	208.0000
79.2467	199.0000
79.2662	233.0000
79.2856	230.0000
79.3051	246.0000
79.3245	230.0000
79.3440	203.0000
79.3634	235.0000
79.3829	224.0000
79.4024	216.0000
79.4218	256.0000
79.4413	189.0000
79.4607	223.0000
79.4802	216.0000
79.4996	244.0000
79.5191	226.0000
79.5386	216.0000
79.5580	212.0000
79.5775	192.0000
79.5969	206.0000
79.6164	230.0000
79.6358	195.0000
79.6553	206.0000
79.6748	210.0000
79.6942	223.0000
79.7137	230.0000
79.7331	225.0000
79.7526	212.0000
79.7720	229.0000
79.7915	208.0000
79.8110	218.0000
79.8304	235.0000
79.8499	225.0000
79.8693	207.0000
79.8888	217.0000
79.9082	212.0000
79.9277	252.0000
79.9472	177.0000
79.9666	228.0000
79.9861	237.0000
80.0055	197.0000
80.0250	230.0000
80.0444	243.0000
80.0639	224.0000
80.0834	204.0000
80.1028	212.0000
80.1223	204.0000
80.1417	224.0000
80.1612	210.0000
80.1806	198.0000
80.2001	231.0000
80.2196	214.0000
80.2390	223.0000
80.2585	223.0000
80.2779	221.0000
80.2974	218.0000
80.3168	232.0000
80.3363	213.0000
80.3558	206.0000
80.3752	212.0000
80.3947	228.0000
80.4141	211.0000
80.4336	222.0000
80.4530	212.0000
80.4725	233.0000
80.4920	243.0000
80.5114	215.0000
80.5309	204.0000
80.5503	212.0000
80.5698	211.0000
80.5892	235.0000
80.6087	240.0000
80.6281	213.0000
80.6476	219.0000
80.6671	214.0000
80.6865	203.0000
80.7060	208.0000
80.7254	202.0000
80.7449	215.0000
80.7643	235.0000
80.7838	221.0000
80.8033	211.0000
80.8227	215.0000
80.8422	223.0000
80.8616	213.0000
80.8811	207.0000
80.9005	241.0000
80.9200	236.0000
80.9395	229.0000
80.9589	221.0000
80.9784	237.0000
80.9978	230.0000
81.0173	204.0000
81.0367	238.0000
81.0562	212.0000
81.0757	228.0000
81.0951	233.0000
81.1146	240.0000
81.1340	237.0000
81.1535	211.0000
81.1729	238.0000
81.1924	206.0000
81.2119	237.0000
81.2313	200.0000
81.2508	227.0000
81.2702	215.0000
81.2897	257.0000
81.3091	237.0000
81.3286	226.0000
81.3481	218.0000
81.3675	210.0000
81.3870	250.0000
81.4064	205.0000
81.4259	222.0000
81.4453	243.0000
81.4648	218.0000
81.4843	181.0000
81.5037	220.0000
81.5232	195.0000
81.5426	212.0000
81.5621	221.0000
81.5815	211.0000
81.6010	237.0000
81.6205	214.0000
81.6399	250.0000
81.6594	232.0000
81.6788	259.0000
81.6983	178.0000
81.7177	240.0000
81.7372	208.0000
81.7567	235.0000
81.7761	225.0000
81.7956	206.0000
81.8150	238.0000
81.8345	230.0000
81.8539	198.0000
81.8734	202.0000
81.8929	189.0000
81.9123	214.0000
81.9318	222.0000
81.9512	215.0000
81.9707	210.0000
81.9901	213.0000
82.0096	217.0000
82.0291	214.0000
82.0485	222.0000
82.0680	216.0000
82.0874	195.0000
82.1069	228.0000
82.1263	203.0000
82.1458	242.0000
82.1653	223.0000
82.1847	206.0000
82.2042	218.0000
82.2236	205.0000
82.2431	236.0000
82.2625	230.0000
82.2820	196.0000
82.3015	233.0000
82.3209	224.0000
82.3404	197.0000
82.3598	224.0000
82.3793	214.0000
82.3987	234.0000
82.4182	230.0000
82.4377	219.0000
82.4571	219.0000
82.4766	179.0000
82.4960	205.0000
82.5155	224.0000
82.5349	221.0000
82.5544	215.0000
82.5739	236.0000
82.5933	224.0000
82.6128	212.0000
82.6322	221.0000
82.6517	231.0000
82.6711	207.0000
82.6906	232.0000
82.7101	217.0000
82.7295	195.0000
82.7490	227.0000
82.7684	214.0000
82.7879	215.0000
82.8073	194.0000
82.8268	223.0000
82.8463	224.0000
82.8657	224.0000
82.8852	220.0000
82.9046	253.0000
82.9241	227.0000
82.9435	246.0000
82.9630	234.0000
82.9825	236.0000
83.0019	213.0000
83.0214	202.0000
83.0408	225.0000
83.0603	241.0000
83.0797	223.0000
83.0992	220.0000
83.1187	221.0000
83.1381	225.0000
83.1576	243.0000
83.1770	229.0000
83.1965	200.0000
83.2159	228.0000
83.2354	205.0000
83.2549	227.0000
83.2743	241.0000
83.2938	212.0000
83.3132	232.0000
83.3327	263.0000
83.3521	229.0000
83.3716	198.0000
83.3911	247.0000
83.4105	201.0000
83.4300	195.0000
83.4494	229.0000
83.4689	238.0000
83.4883	208.0000
83.5078	203.0000
83.5272	207.0000
83.5467	230.0000
83.5662	212.0000
83.5856	233.0000
83.6051	215.0000
83.6245	189.0000
83.6440	218.0000
83.6634	217.0000
83.6829	203.0000
83.7024	242.0000
83.7218	203.0000
83.7413	227.0000
83.7607	234.0000
83.7802	205.0000
83.7996	216.0000
83.8191	208.0000
83.8386	211.0000
83.8580	215.0000
83.8775	233.0000
83.8969	224.0000
83.9164	236.0000
83.9358	223.0000
83.9553	204.0000
83.9748	205.0000
83.9942	246.0000
84.0137	203.0000
84.0331	218.0000
84.0526	218.0000
84.0720	211.0000
84.0915	178.0000
84.1110	204.0000
84.1304	228.0000
84.1499	228.0000
84.1693	229.0000
84.1888	217.0000
84.2082	199.0000
84.2277	204.0000
84.2472	214.0000
84.2666	211.0000
84.2861	200.0000
84.3055	231.0000
84.3250	221.0000
84.3444	223.0000
84.3639	213.0000
84.3834	211.0000
84.4028	239.0000
84.4223	226.0000
84.4417	228.0000
84.4612	232.0000
84.4806	232.0000
84.5001	213.0000
84.5196	236.0000
84.5390	204.0000
84.5585	210.0000
84.5779	251.0000
84.5974	210.0000
84.6168	208.0000
84.6363	242.0000
84.6558	232.0000
84.6752	200.0000
84.6947	215.0000
84.7141	224.0000
84.7336	219.0000
84.7530	218.0000
84.7725	205.0000
84.7920	221.0000
84.8114	238.0000
84.8309	213.0000
84.8503	225.0000
84.8698	224.0000
84.8892	213.0000
84.9087	208.0000
84.9282	215.0000
84.9476	206.0000
84.9671	223.0000
84.9865	248.0000
85.0060	241.0000
85.0254	234.0000
85.0449	217.0000
85.0644	199.0000
85.0838	228.0000
85.1033	224.0000
85.1227	213.0000
85.1422	226.0000
85.1616	222.0000
85.1811	212.0000
85.2006	245.0000
85.2200	205.0000
85.2395	233.0000
85.2589	210.0000
85.2784	210.0000
85.2978	205.0000
85.3173	218.0000
85.3368	207.0000
85.3562	233.0000
85.3757	226.0000
85.3951	218.0000
85.4146	223.0000
85.4340	212.0000
85.4535	228.0000
85.4730	212.0000
85.4924	221.0000
85.5119	223.0000
85.5313	206.0000
85.5508	212.0000
85.5702	253.0000
85.5897	210.0000
85.6092	222.0000
85.6286	231.0000
85.6481	219.0000
85.6675	233.0000
85.6870	182.0000
85.7064	218.0000
85.7259	210.0000
85.7454	211.0000
85.7648	200.0000
85.7843	207.0000
85.8037	214.0000
85.8232	224.0000
85.8426	210.0000
85.8621	247.0000
85.8816	210.0000
85.9010	201.0000
85.9205	231.0000
85.9399	223.0000
85.9594	228.0000
85.9788	221.0000
85.9983	202.0000
86.0178	221.0000
86.0372	203.0000
86.0567	191.0000
86.0761	207.0000
86.0956	216.0000
86.1150	221.0000
86.1345	186.0000
86.1540	217.0000
86.1734	224.0000
86.1929	217.0000
86.2123	194.0000
86.2318	227.0000
86.2512	211.0000
86.2707	222.0000
86.2901	240.0000
86.3096	206.0000
86.3291	232.0000
86.3485	230.0000
86.3680	210.0000
86.3874	192.0000
86.4069	218.0000
86.4263	222.0000
86.4458	232.0000
86.4653	216.0000
86.4847	225.0000
86.5042	222.0000
86.5236	249.0000
86.5431	232.0000
86.5625	235.0000
86.5820	235.0000
86.6015	195.0000
86.6209	234.0000
86.6404	229.0000
86.6598	213.0000
86.6793	223.0000
86.6987	218.0000
86.7182	261.0000
86.7377	213.0000
86.7571	232.0000
86.7766	209.0000
86.7960	214.0000
86.8155	235.0000
86.8349	212.0000
86.8544	198.0000
86.8739	211.0000
86.8933	217.0000
86.9128	208.0000
86.9322	222.0000
86.9517	244.0000
86.9711	208.0000
86.9906	215.0000
87.0101	220.0000
87.0295	213.0000
87.0490	217.0000
87.0684	238.0000
87.0879	211.0000
87.1073	222.0000
87.1268	234.0000
87.1463	207.0000
87.1657	210.0000
87.1852	218.0000
87.2046	246.0000
87.2241	260.0000
87.2435	191.0000
87.2630	203.0000
87.2825	219.0000
87.3019	222.0000
87.3214	227.0000
87.3408	244.0000
87.3603	235.0000
87.3797	219.0000
87.3992	248.0000
87.4187	234.0000
87.4381	230.0000
87.4576	196.0000
87.4770	210.0000
87.4965	209.0000
87.5159	215.0000
87.5354	214.0000
87.5549	218.0000
87.5743	227.0000
87.5938	214.0000
87.6132	221.0000
87.6327	241.0000
87.6521	205.0000
87.6716	236.0000
87.6911	228.0000
87.7105	243.0000
87.7300	221.0000
87.7494	237.0000
87.7689	219.0000
87.7883	196.0000
87.8078	234.0000
87.8273	205.0000
87.8467	226.0000
87.8662	209.0000
87.8856	232.0000
87.9051	224.0000
87.9245	233.0000
87.9440	212.0000
87.9635	212.0000
87.9829	212.0000
88.0024	248.0000
88.0218	224.0000
88.0413	231.0000
88.0607	241.0000
88.0802	218.0000
88.0997	211.0000
88.1191	212.0000
88.1386	210.0000
88.1580	208.0000
88.1775	237.0000
88.1969	220.0000
88.2164	226.0000
88.2359	206.0000
88.2553	217.0000
88.2748	250.0000
88.2942	243.0000
88.3137	227.0000
88.3331	225.0000
88.3526	205.0000
88.3721	268.0000
88.3915	224.0000
88.4110	224.0000
88.4304	235.0000
88.4499	199.0000
88.4693	205.0000
88.4888	224.0000
88.5083	210.0000
88.5277	245.0000
88.5472	246.0000
88.5666	217.0000
88.5861	220.0000
88.6055	223.0000
88.6250	235.0000
88.6445	237.0000
88.6639	212.0000
88.6834	223.0000
88.7028	222.0000
88.7223	188.0000
88.7417	236.0000
88.7612	243.0000
88.7807	257.0000
88.8001	250.0000
88.8196	230.0000
88.8390	222.0000
88.8585	215.0000
88.8779	237.0000
88.8974	214.0000
88.9169	234.0000
88.9363	238.0000
88.9558	219.0000
88.9752	246.0000
88.9947	209.0000
89.0141	203.0000
89.0336	238.0000
89.0531	215.0000
89.0725	227.0000
89.0920	261.0000
89.1114	231.0000
89.1309	238.0000
89.1503	224.0000
89.1698	248.0000
89.1892	240.0000
89.2087	223.0000
89.2282	224.0000
89.2476	228.0000
89.2671	259.0000
89.2865	269.0000
89.3060	241.0000
89.3254	242.0000
89.3449	269.0000
89.3644	251.0000
89.3838	220.0000
89.4033	269.0000
89.4227	234.0000
89.4422	263.0000
89.4616	253.0000
89.4811	208.0000
89.5006	209.0000
89.5200	244.0000
89.5395	262.0000
89.5589	247.0000
89.5784	237.0000
89.5978	227.0000
89.6173	277.0000
89.6368	235.0000
89.6562	257.0000
89.6757	239.0000
89.6951	250.0000
89.7146	269.0000
89.7340	272.0000
89.7535	231.0000
89.7730	272.0000
89.7924	250.0000
89.8119	236.0000
89.8313	246.0000
89.8508	265.0000
89.8702	255.0000
89.8897	251.0000
89.9092	255.0000
89.9286	281.0000
89.9481	261.0000
89.9675	277.0000
89.9870	273.0000
90.0064	304.0000
90.0259	294.0000
90.0454	278.0000
90.0648	277.0000
90.0843	284.0000
90.1037	276.0000
90.1232	307.0000
90.1426	295.0000
90.1621	306.0000
90.1816	330.0000
90.2010	335.0000
90.2205	301.0000
90.2399	336.0000
90.2594	360.0000
90.2788	333.0000
90.2983	399.0000
90.3178	401.0000
90.3372	412.0000
90.3567	419.0000
90.3761	456.0000
90.3956	464.0000
90.4150	495.0000
90.4345	534.0000
90.4540	561.0000
90.4734	577.0000
90.4929	650.0000
90.5123	667.0000
90.5318	658.0000
90.5512	717.0000
90.5707	737.0000
90.5902	798.0000
90.6096	789.0000
90.6291	790.0000
90.6485	808.0000
90.6680	801.0000
90.6874	786.0000
90.7069	759.0000
90.7264	681.0000
90.7458	708.0000
90.7653	675.0000
90.7847	629.0000
90.8042	636.0000
90.8236	608.0000
90.8431	646.0000
90.8626	585.0000
90.8820	581.0000
90.9015	651.0000
90.9209	557.0000
90.9404	562.0000
90.9598	550.0000
90.9793	495.0000
90.9988	479.0000
91.0182	443.0000
91.0377	418.0000
91.0571	385.0000
91.0766	386.0000
91.0960	370.0000
91.1155	305.0000
91.1350	362.0000
91.1544	334.0000
91.1739	324.0000
91.1933	284.0000
91.2128	309.0000
91.2322	292.0000
91.2517	272.0000
91.2712	303.0000
91.2906	281.0000
91.3101	313.0000
91.3295	260.0000
91.3490	251.0000
91.3684	304.0000
91.3879	281.0000
91.4074	269.0000
91.4268	233.0000
91.4463	268.0000
91.4657	252.0000
91.4852	253.0000
91.5046	257.0000
91.5241	268.0000
91.5436	268.0000
91.5630	282.0000
91.5825	228.0000
91.6019	234.0000
91.6214	237.0000
91.6408	278.0000
91.6603	245.0000
91.6798	232.0000
91.6992	237.0000
91.7187	248.0000
91.7381	236.0000
91.7576	245.0000
91.7770	243.0000
91.7965	234.0000
91.8160	249.0000
91.8354	249.0000
91.8549	239.0000
91.8743	229.0000
91.8938	223.0000
91.9132	247.0000
91.9327	244.0000
91.9521	210.0000
91.9716	227.0000
91.9911	244.0000
92.0105	217.0000
92.0300	234.0000
92.0494	233.0000
92.0689	227.0000
92.0883	237.0000
92.1078	234.0000
92.1273	202.0000
92.1467	229.0000
92.1662	246.0000
92.1856	249.0000
92.2051	254.0000
92.2245	232.0000
92.2440	209.0000
92.2635	223.0000
92.2829	240.0000
92.3024	237.0000
92.3218	251.0000
92.3413	251.0000
92.3607	230.0000
92.3802	235.0000
92.3997	221.0000
92.4191	231.0000
92.4386	206.0000
92.4580	231.0000
92.4775	230.0000
92.4969	254.0000
92.5164	220.0000
92.5359	251.0000
92.5553	234.0000
92.5748	232.0000
92.5942	206.0000
92.6137	239.0000
92.6331	222.0000
92.6526	227.0000
92.6721	223.0000
92.6915	238.0000
92.7110	210.0000
92.7304	221.0000
92.7499	241.0000
92.7693	247.0000
92.7888	232.0000
92.8083	220.0000
92.8277	209.0000
92.8472	221.0000
92.8666	222.0000
92.8861	230.0000
92.9055	231.0000
92.9250	238.0000
92.9445	226.0000
92.9639	219.0000
92.9834	196.0000
93.0028	233.0000
93.0223	248.0000
93.0417	232.0000
93.0612	220.0000
93.0807	240.0000
93.1001	234.0000
93.1196	216.0000
93.1390	248.0000
93.1585	212.0000
93.1779	239.0000
93.1974	221.0000
93.2169	234.0000
93.2363	213.0000
93.2558	234.0000
93.2752	280.0000
93.2947	239.0000
93.3141	217.0000
93.3336	256.0000
93.3531	198.0000
93.3725	216.0000
93.3920	243.0000
93.4114	216.0000
93.4309	244.0000
93.4503	223.0000
93.4698	251.0000
93.4893	214.0000
93.5087	255.0000
93.5282	205.0000
93.5476	221.0000
93.5671	192.0000
93.5865	225.0000
93.6060	215.0000
93.6255	230.0000
93.6449	215.0000
93.6644	228.0000
93.6838	235.0000
93.7033	207.0000
93.7227	249.0000
93.7422	232.0000
93.7617	228.0000
93.7811	230.0000
93.8006	241.0000
93.8200	219.0000
93.8395	232.0000
93.8589	225.0000
93.8784	241.0000
93.8979	243.0000
93.9173	241.0000
93.9368	262.0000
93.9562	218.0000
93.9757	207.0000
93.9951	236.0000
94.0146	233.0000
94.0341	256.0000
94.0535	225.0000
94.0730	214.0000
94.0924	243.0000
94.1119	247.0000
94.1313	246.0000
94.1508	245.0000
94.1703	251.0000
94.1897	277.0000
94.2092	218.0000
94.2286	238.0000
94.2481	247.0000
94.2675	210.0000
94.2870	248.0000
94.3065	236.0000
94.3259	226.0000
94.3454	216.0000
94.3648	234.0000
94.3843	233.0000
94.4037	248.0000
94.4232	246.0000
94.4427	232.0000
94.4621	245.0000
94.4816	250.0000
94.5010	213.0000
94.5205	225.0000
94.5399	254.0000
94.5594	226.0000
94.5789	238.0000
94.5983	244.0000
94.6178	252.0000
94.6372	256.0000
94.6567	275.0000
94.6761	216.0000
94.6956	249.0000
94.7150	226.0000
94.7345	231.0000
94.7540	233.0000
94.7734	244.0000
94.7929	213.0000
94.8123	216.0000
94.8318	210.0000
94.8512	228.0000
94.8707	265.0000
94.8902	215.0000
94.9096	252.0000
94.9291	225.0000
94.9485	218.0000
94.9680	242.0000
94.9874	257.0000
95.0069	241.0000
95.0264	229.0000
95.0458	221.0000
95.0653	231.0000
95.0847	227.0000
95.1042	228.0000
95.1236	231.0000
95.1431	212.0000
95.1626	231.0000
95.1820	257.0000
95.2015	254.0000
95.2209	223.0000
95.2404	237.0000
95.2598	223.0000
95.2793	251.0000
95.2988	233.0000
95.3182	226.0000
95.3377	221.0000
95.3571	204.0000
95.3766	258.0000
95.3960	249.0000
95.4155	266.0000
95.4350	214.0000
95.4544	227.0000
95.4739	232.0000
95.4933	254.0000
95.5128	223.0000
95.5322	263.0000
95.5517	247.0000
95.5712	244.0000
95.5906	263.0000
95.6101	243.0000
95.6295	262.0000
95.6490	241.0000
95.6684	245.0000
95.6879	242.0000
95.7074	264.0000
95.7268	244.0000
95.7463	262.0000
95.7657	258.0000
95.7852	253.0000
95.8046	236.0000
95.8241	284.0000
95.8436	245.0000
95.8630	240.0000
95.8825	259.0000
95.9019	280.0000
95.9214	242.0000
95.9408	264.0000
95.9603	285.0000
95.9798	281.0000
95.9992	249.0000
96.0187	252.0000
96.0381	263.0000
96.0576	276.0000
96.0770	295.0000
96.0965	280.0000
96.1160	277.0000
96.1354	260.0000
96.1549	289.0000
96.1743	253.0000
96.1938	280.0000
96.2132	248.0000
96.2327	254.0000
96.2522	261.0000
96.2716	254.0000
96.2911	243.0000
96.3105	252.0000
96.3300	237.0000
96.3494	247.0000
96.3689	247.0000
96.3884	247.0000
96.4078	234.0000
96.4273	309.0000
96.4467	245.0000
96.4662	227.0000
96.4856	246.0000
96.5051	253.0000
96.5246	244.0000
96.5440	250.0000
96.5635	238.0000
96.5829	236.0000
96.6024	225.0000
96.6218	243.0000
96.6413	245.0000
96.6608	228.0000
96.6802	260.0000
96.6997	237.0000
96.7191	258.0000
96.7386	218.0000
96.7580	237.0000
96.7775	250.0000
96.7970	253.0000
96.8164	221.0000
96.8359	229.0000
96.8553	256.0000
96.8748	254.0000
96.8942	236.0000
96.9137	231.0000
96.9332	228.0000
96.9526	232.0000
96.9721	231.0000
96.9915	191.0000
97.0110	240.0000
97.0304	220.0000
97.0499	235.0000
97.0694	236.0000
97.0888	222.0000
97.1083	231.0000
97.1277	222.0000
97.1472	244.0000
97.1666	252.0000
97.1861	234.0000
97.2056	244.0000
97.2250	232.0000
97.2445	215.0000
97.2639	262.0000
97.2834	236.0000
97.3028	227.0000
97.3223	214.0000
97.3418	251.0000
97.3612	217.0000
97.3807	240.0000
97.4001	207.0000
97.4196	225.0000
97.4390	219.0000
97.4585	223.0000
97.4780	215.0000
97.4974	224.0000
97.5169	240.0000
97.5363	214.0000
97.5558	213.0000
97.5752	217.0000
97.5947	245.0000
97.6141	248.0000
97.6336	224.0000
97.6531	234.0000
97.6725	227.0000
97.6920	197.0000
97.7114	252.0000
97.7309	222.0000
97.7503	211.0000
97.7698	219.0000
97.7893	213.0000
97.8087	262.0000
97.8282	201.0000
97.8476	210.0000
97.8671	223.0000
97.8865	213.0000
97.9060	255.0000
97.9255	222.0000
97.9449	235.0000
97.9644	226.0000
97.9838	252.0000
98.0033	220.0000
98.0227	229.0000
98.0422	214.0000
98.0617	227.0000
98.0811	226.0000
98.1006	214.0000
98.1200	218.0000
98.1395	230.0000
98.1589	217.0000
98.1784	247.0000
98.1979	218.0000
98.2173	228.0000
98.2368	208.0000
98.2562	216.0000
98.2757	220.0000
98.2951	207.0000
98.3146	231.0000
98.3341	240.0000
98.3535	236.0000
98.3730	236.0000
98.3924	223.0000
98.4119	238.0000
98.4313	246.0000
98.4508	216.0000
98.4703	236.0000
98.4897	224.0000
98.5092	230.0000
98.5286	196.0000
98.5481	236.0000
98.5675	226.0000
98.5870	216.0000
98.6065	228.0000
98.6259	219.0000
98.6454	218.0000
98.6648	254.0000
98.6843	240.0000
98.7037	227.0000
98.7232	229.0000
98.7427	203.0000
98.7621	213.0000
98.7816	249.0000
98.8010	220.0000
98.8205	206.0000
98.8399	236.0000
98.8594	194.0000
98.8789	238.0000
98.8983	219.0000
98.9178	205.0000
98.9372	226.0000
98.9567	219.0000
98.9761	251.0000
98.9956	203.0000
99.0151	239.0000
99.0345	219.0000
99.0540	220.0000
99.0734	209.0000
99.0929	218.0000
99.1123	223.0000
99.1318	211.0000
99.1513	214.0000
99.1707	233.0000
99.1902	234.0000
99.2096	216.0000
99.2291	209.0000
99.2485	231.0000
99.2680	239.0000
99.2875	226.0000
99.3069	224.0000
99.3264	219.0000
99.3458	230.0000
99.3653	228.0000
99.3847	252.0000
99.4042	213.0000
99.4237	252.0000
99.4431	240.0000
99.4626	217.0000
99.4820	229.0000
99.5015	227.0000
99.5209	237.0000
99.5404	228.0000
99.5599	257.0000
99.5793	228.0000
99.5988	249.0000
99.6182	231.0000
99.6377	267.0000
99.6571	242.0000
99.6766	217.0000
99.6961	215.0000
99.7155	218.0000
99.7350	247.0000
99.7544	239.0000
99.7739	202.0000
99.7933	242.0000
99.8128	227.0000
99.8323	205.0000
99.8517	220.0000
99.8712	243.0000
99.8906	221.0000
99.9101	218.0000
99.9295	211.0000
99.9490	226.0000
99.9685	227.0000
99.9879	222.0000
100.0074	227.0000
