30.0009	201.0000
30.0204	196.0000
30.0398	184.0000
30.0593	189.0000
30.0787	189.0000
30.0982	166.0000
30.1177	184.0000
30.1371	196.0000
30.1566	210.0000
30.1760	188.0000
30.1955	166.0000
30.2149	158.0000
30.2344	175.0000
30.2539	169.0000
30.2733	203.0000
30.2928	177.0000
30.3122	171.0000
30.3317	186.0000
30.3511	190.0000
30.3706	189.0000
30.3901	202.0000
30.4095	198.0000
30.4290	179.0000
30.4484	193.0000
30.4679	191.0000
30.4873	181.0000
30.5068	198.0000
30.5263	193.0000
30.5457	186.0000
30.5652	186.0000
30.5846	205.0000
30.6041	191.0000
30.6235	173.0000
30.6430	178.0000
30.6625	194.0000
30.6819	183.0000
30.7014	173.0000
30.7208	187.0000
30.7403	203.0000
30.7597	190.0000
30.7792	184.0000
30.7987	170.0000
30.8181	198.0000
30.8376	180.0000
30.8570	175.0000
30.8765	186.0000
30.8959	180.0000
30.9154	197.0000
30.9349	183.0000
30.9543	173.0000
30.9738	190.0000
30.9932	177.0000
31.0127	198.0000
31.0321	216.0000
31.0516	180.0000
31.0711	174.0000
31.0905	190.0000
31.1100	209.0000
31.1294	169.0000
31.1489	184.0000
31.1683	188.0000
31.1878	173.0000
31.2073	170.0000
31.2267	192.0000
31.2462	181.0000
31.2656	188.0000
31.2851	202.0000
31.3045	202.0000
31.3240	181.0000
31.3435	177.0000
31.3629	173.0000
31.3824	199.0000
31.4018	193.0000
31.4213	177.0000
31.4407	185.0000
31.4602	173.0000
31.4797	193.0000
31.4991	168.0000
31.5186	184.0000
31.5380	188.0000
31.5575	211.0000
31.5769	186.0000
31.5964	186.0000
31.6159	193.0000
31.6353	192.0000
31.6548	176.0000
31.6742	201.0000
31.6937	173.0000
31.7131	203.0000
31.7326	209.0000
31.7521	199.0000
31.7715	207.0000
31.7910	190.0000
31.8104	188.0000
31.8299	185.0000
31.8493	193.0000
31.8688	180.0000
31.8883	189.0000
31.9077	186.0000
31.9272	170.0000
31.9466	189.0000
31.9661	191.0000
31.9855	201.0000
32.0050	195.0000
32.0245	181.0000
32.0439	170.0000
32.0634	186.0000
32.0828	185.0000
32.1023	164.0000
32.1217	198.0000
32.1412	187.0000
32.1607	193.0000
32.1801	206.0000
32.1996	191.0000
32.2190	191.0000
32.2385	224.0000
32.2579	180.0000
32.2774	182.0000
32.2969	159.0000
32.3163	193.0000
32.3358	175.0000
32.3552	166.0000
32.3747	192.0000
32.3941	198.0000
32.4136	204.0000
32.4331	184.0000
32.4525	195.0000
32.4720	176.0000
32.4914	168.0000
32.5109	194.0000
32.5303	214.0000
32.5498	213.0000
32.5692	174.0000
32.5887	202.0000
32.6082	191.0000
32.6276	200.0000
32.6471	194.0000
32.6665	196.0000
32.6860	194.0000
32.7054	153.0000
32.7249	185.0000
32.7444	148.0000
32.7638	191.0000
32.7833	189.0000
32.8027	205.0000
32.8222	202.0000
32.8416	188.0000
32.8611	204.0000
32.8806	180.0000
32.9000	191.0000
32.9195	200.0000
32.9389	179.0000
32.9584	178.0000
32.9778	181.0000
32.9973	194.0000
33.0168	186.0000
33.0362	182.0000
33.0557	182.0000
33.0751	170.0000
33.0946	176.0000
33.1140	187.0000
33.1335	199.0000
33.1530	173.0000
33.1724	189.0000
33.1919	196.0000
33.2113	197.0000
33.2308	173.0000
33.2502	211.0000
33.2697	188.0000
33.2892	180.0000
33.3086	204.0000
33.3281	191.0000
33.3475	182.0000
33.3670	195.0000
33.3864	171.0000
33.4059	194.0000
33.4254	213.0000
33.4448	210.0000
33.4643	198.0000
33.4837	192.0000
33.5032	180.0000
33.5226	191.0000
33.5421	192.0000
33.5616	183.0000
33.5810	158.0000
33.6005	211.0000
33.6199	175.0000
33.6394	193.0000
33.6588	196.0000
33.6783	195.0000
33.6978	208.0000
33.7172	191.0000
33.7367	191.0000
33.7561	186.0000
33.7756	193.0000
33.7950	189.0000
33.8145	183.0000
33.8340	185.0000
33.8534	187.0000
33.8729	214.0000
33.8923	205.0000
33.9118	194.0000
33.9312	200.0000
33.9507	185.0000
33.9702	196.0000
33.9896	189.0000
34.0091	208.0000
34.0285	183.0000
34.0480	194.0000
34.0674	177.0000
34.0869	184.0000
34.1064	220.0000
34.1258	187.0000
34.1453	194.0000
34.1647	179.0000
34.1842	173.0000
34.2036	182.0000
34.2231	201.0000
34.2426	194.0000
34.2620	200.0000
34.2815	214.0000
34.3009	193.0000
34.3204	175.0000
34.3398	204.0000
34.3593	200.0000
34.3788	203.0000
34.3982	184.0000
34.4177	199.0000
34.4371	199.0000
34.4566	173.0000
34.4760	197.0000
34.4955	191.0000
34.5150	200.0000
34.5344	180.0000
34.5539	195.0000
34.5733	157.0000
34.5928	187.0000
34.6122	179.0000
34.6317	196.0000
34.6512	230.0000
34.6706	171.0000
34.6901	194.0000
34.7095	191.0000
34.7290	210.0000
34.7484	189.0000
34.7679	190.0000
34.7874	202.0000
34.8068	194.0000
34.8263	177.0000
34.8457	202.0000
34.8652	205.0000
34.8846	179.0000
34.9041	188.0000
34.9236	204.0000
34.9430	207.0000
34.9625	189.0000
34.9819	210.0000
35.0014	174.0000
35.0208	200.0000
35.0403	205.0000
35.0598	180.0000
35.0792	180.0000
35.0987	197.0000
35.1181	208.0000
35.1376	196.0000
35.1570	212.0000
35.1765	192.0000
35.1960	180.0000
35.2154	187.0000
35.2349	169.0000
35.2543	217.0000
35.2738	205.0000
35.2932	199.0000
35.3127	187.0000
35.3322	221.0000
35.3516	208.0000
35.3711	215.0000
35.3905	188.0000
35.4100	182.0000
35.4294	159.0000
35.4489	173.0000
35.4683	190.0000
35.4878	199.0000
35.5073	192.0000
35.5267	196.0000
35.5462	194.0000
35.5656	173.0000
35.5851	175.0000
35.6045	195.0000
35.6240	203.0000
35.6435	193.0000
35.6629	179.0000
35.6824	189.0000
35.7018	184.0000
35.7213	202.0000
35.7407	209.0000
35.7602	185.0000
35.7797	196.0000
35.7991	189.0000
35.8186	213.0000
35.8380	187.0000
35.8575	183.0000
35.8769	204.0000
35.8964	183.0000
35.9159	215.0000
35.9353	160.0000
35.9548	197.0000
35.9742	204.0000
35.9937	182.0000
36.0131	179.0000
36.0326	190.0000
36.0521	190.0000
36.0715	196.0000
36.0910	191.0000
36.1104	177.0000
36.1299	193.0000
36.1493	187.0000
36.1688	191.0000
36.1883	193.0000
36.2077	223.0000
36.2272	196.0000
36.2466	177.0000
36.2661	189.0000
36.2855	208.0000
36.3050	193.0000
36.3245	190.0000
36.3439	208.0000
36.3634	190.0000
36.3828	159.0000
36.4023	198.0000
36.4217	207.0000
36.4412	199.0000
36.4607	198.0000
36.4801	191.0000
36.4996	198.0000
36.5190	199.0000
36.5385	194.0000
36.5579	195.0000
36.5774	200.0000
36.5969	192.0000
36.6163	189.0000
36.6358	194.0000
36.6552	166.0000
36.6747	181.0000
36.6941	196.0000
36.7136	188.0000
36.7331	185.0000
36.7525	192.0000
36.7720	195.0000
36.7914	191.0000
36.8109	178.0000
36.8303	191.0000
36.8498	190.0000
36.8693	196.0000
36.8887	208.0000
36.9082	175.0000
36.9276	176.0000
36.9471	205.0000
36.9665	202.0000
36.9860	210.0000
37.0055	189.0000
37.0249	195.0000
37.0444	168.0000
37.0638	211.0000
37.0833	199.0000
37.1027	204.0000
37.1222	197.0000
37.1417	181.0000
37.1611	202.0000
37.1806	201.0000
37.2000	224.0000
37.2195	174.0000
37.2389	220.0000
37.2584	198.0000
37.2779	160.0000
37.2973	179.0000
37.3168	203.0000
37.3362	171.0000
37.3557	194.0000
37.3751	195.0000
37.3946	189.0000
37.4141	193.0000
37.4335	198.0000
37.4530	202.0000
37.4724	187.0000
37.4919	199.0000
37.5113	189.0000
37.5308	180.0000
37.5503	187.0000
37.5697	202.0000
37.5892	160.0000
37.6086	200.0000
37.6281	197.0000
37.6475	211.0000
37.6670	172.0000
37.6865	190.0000
37.7059	167.0000
37.7254	199.0000
37.7448	189.0000
37.7643	185.0000
37.7837	184.0000
37.8032	192.0000
37.8227	208.0000
37.8421	186.0000
37.8616	193.0000
37.8810	195.0000
37.9005	198.0000
37.9199	183.0000
37.9394	200.0000
37.9589	205.0000
37.9783	194.0000
37.9978	211.0000
38.0172	212.0000
38.0367	174.0000
38.0561	219.0000
38.0756	175.0000
38.0951	188.0000
38.1145	180.0000
38.1340	194.0000
38.1534	231.0000
38.1729	189.0000
38.1923	183.0000
38.2118	196.0000
38.2312	199.0000
38.2507	190.0000
38.2702	189.0000
38.2896	180.0000
38.3091	195.0000
38.3285	187.0000
38.3480	206.0000
38.3674	186.0000
38.3869	181.0000
38.4064	208.0000
38.4258	202.0000
38.4453	189.0000
38.4647	175.0000
38.4842	209.0000
38.5036	174.0000
38.5231	205.0000
38.5426	184.0000
38.5620	210.0000
38.5815	187.0000
38.6009	209.0000
38.6204	198.0000
38.6398	199.0000
38.6593	208.0000
38.6788	200.0000
38.6982	188.0000
38.7177	188.0000
38.7371	176.0000
38.7566	207.0000
38.7760	197.0000
38.7955	186.0000
38.8150	191.0000
38.8344	202.0000
38.8539	211.0000
38.8733	202.0000
38.8928	205.0000
38.9122	199.0000
38.9317	188.0000
38.9512	216.0000
38.9706	174.0000
38.9901	197.0000
39.0095	182.0000
39.0290	205.0000
39.0484	201.0000
39.0679	194.0000
39.0874	210.0000
39.1068	198.0000
39.1263	187.0000
39.1457	197.0000
39.1652	205.0000
39.1846	173.0000
39.2041	188.0000
39.2236	185.0000
39.2430	193.0000
39.2625	200.0000
39.2819	202.0000
39.3014	202.0000
39.3208	206.0000
39.3403	206.0000
39.3598	202.0000
39.3792	219.0000
39.3987	197.0000
39.4181	186.0000
39.4376	196.0000
39.4570	194.0000
39.4765	203.0000
39.4960	202.0000
39.5154	193.0000
39.5349	203.0000
39.5543	189.0000
39.5738	193.0000
39.5932	213.0000
39.6127	181.0000
39.6322	193.0000
39.6516	192.0000
39.6711	215.0000
39.6905	185.0000
39.7100	187.0000
39.7294	171.0000
39.7489	183.0000
39.7684	205.0000
39.7878	235.0000
39.8073	188.0000
39.8267	209.0000
39.8462	207.0000
39.8656	215.0000
39.8851	207.0000
39.9046	191.0000
39.9240	208.0000
39.9435	197.0000
39.9629	186.0000
39.9824	174.0000
40.0018	187.0000
40.0213	179.0000
40.0408	215.0000
40.0602	206.0000
40.0797	180.0000
40.0991	186.0000
40.1186	199.0000
40.1380	201.0000
40.1575	191.0000
40.1770	176.0000
40.1964	222.0000
40.2159	182.0000
40.2353	182.0000
40.2548	215.0000
40.2742	203.0000
40.2937	216.0000
40.3132	201.0000
40.3326	207.0000
40.3521	248.0000
40.3715	189.0000
40.3910	195.0000
40.4104	211.0000
40.4299	196.0000
40.4494	191.0000
40.4688	200.0000
40.4883	200.0000
40.5077	199.0000
40.5272	222.0000
40.5466	198.0000
40.5661	221.0000
40.5856	215.0000
40.6050	183.0000
40.6245	218.0000
40.6439	191.0000
40.6634	193.0000
40.6828	215.0000
40.7023	192.0000
40.7218	215.0000
40.7412	186.0000
40.7607	179.0000
40.7801	174.0000
40.7996	202.0000
40.8190	193.0000
40.8385	212.0000
40.8580	178.0000
40.8774	208.0000
40.8969	198.0000
40.9163	192.0000
40.9358	198.0000
40.9552	202.0000
40.9747	206.0000
40.9941	241.0000
41.0136	254.0000
41.0331	200.0000
41.0525	179.0000
41.0720	208.0000
41.0914	208.0000
41.1109	204.0000
41.1303	203.0000
41.1498	202.0000
41.1693	211.0000
41.1887	232.0000
41.2082	196.0000
41.2276	171.0000
41.2471	210.0000
41.2665	205.0000
41.2860	181.0000
41.3055	195.0000
41.3249	209.0000
41.3444	214.0000
41.3638	208.0000
41.3833	181.0000
41.4027	218.0000
41.4222	185.0000
41.4417	192.0000
41.4611	193.0000
41.4806	203.0000
41.5000	204.0000
41.5195	179.0000
41.5389	214.0000
41.5584	202.0000
41.5779	195.0000
41.5973	205.0000
41.6168	189.0000
41.6362	191.0000
41.6557	191.0000
41.6751	239.0000
41.6946	190.0000
41.7141	207.0000
41.7335	204.0000
41.7530	199.0000
41.7724	196.0000
41.7919	190.0000
41.8113	177.0000
41.8308	207.0000
41.8503	220.0000
41.8697	202.0000
41.8892	201.0000
41.9086	194.0000
41.9281	216.0000
41.9475	217.0000
41.9670	214.0000
41.9865	222.0000
42.0059	191.0000
42.0254	189.0000
42.0448	201.0000
42.0643	200.0000
42.0837	198.0000
42.1032	199.0000
42.1227	198.0000
42.1421	201.0000
42.1616	187.0000
42.1810	211.0000
42.2005	206.0000
42.2199	210.0000
42.2394	217.0000
42.2589	203.0000
42.2783	227.0000
42.2978	187.0000
42.3172	216.0000
42.3367	207.0000
42.3561	206.0000
42.3756	222.0000
42.3951	205.0000
42.4145	204.0000
42.4340	230.0000
42.4534	215.0000
42.4729	244.0000
42.4923	206.0000
42.5118	230.0000
42.5313	203.0000
42.5507	211.0000
42.5702	206.0000
42.5896	220.0000
42.6091	239.0000
42.6285	222.0000
42.6480	214.0000
42.6675	211.0000
42.6869	236.0000
42.7064	237.0000
42.7258	267.0000
42.7453	232.0000
42.7647	199.0000
42.7842	212.0000
42.8037	252.0000
42.8231	235.0000
42.8426	235.0000
42.8620	248.0000
42.8815	199.0000
42.9009	233.0000
42.9204	249.0000
42.9399	237.0000
42.9593	238.0000
42.9788	248.0000
42.9982	199.0000
43.0177	237.0000
43.0371	285.0000
43.0566	253.0000
43.0761	246.0000
43.0955	219.0000
43.1150	254.0000
43.1344	258.0000
43.1539	262.0000
43.1733	285.0000
43.1928	261.0000
43.2123	242.0000
43.2317	254.0000
43.2512	286.0000
43.2706	258.0000
43.2901	285.0000
43.3095	279.0000
43.3290	312.0000
43.3485	314.0000
43.3679	298.0000
43.3874	314.0000
43.4068	330.0000
43.4263	345.0000
43.4457	383.0000
43.4652	373.0000
43.4847	381.0000
43.5041	389.0000
43.5236	439.0000
43.5430	423.0000
43.5625	454.0000
43.5819	512.0000
43.6014	514.0000
43.6209	551.0000
43.6403	596.0000
43.6598	666.0000
43.6792	671.0000
43.6987	639.0000
43.7181	696.0000
43.7376	733.0000
43.7570	732.0000
43.7765	755.0000
43.7960	721.0000
43.8154	697.0000
43.8349	665.0000
43.8543	656.0000
43.8738	635.0000
43.8932	601.0000
43.9127	552.0000
43.9322	581.0000
43.9516	594.0000
43.9711	494.0000
43.9905	449.0000
44.0100	466.0000
44.0294	444.0000
44.0489	424.0000
44.0684	383.0000
44.0878	392.0000
44.1073	376.0000
44.1267	345.0000
44.1462	338.0000
44.1656	348.0000
44.1851	306.0000
44.2046	327.0000
44.2240	280.0000
44.2435	296.0000
44.2629	277.0000
44.2824	250.0000
44.3018	283.0000
44.3213	274.0000
44.3408	271.0000
44.3602	255.0000
44.3797	280.0000
44.3991	249.0000
44.4186	261.0000
44.4380	262.0000
44.4575	248.0000
44.4770	223.0000
44.4964	238.0000
44.5159	233.0000
44.5353	278.0000
44.5548	241.0000
44.5742	230.0000
44.5937	210.0000
44.6132	260.0000
44.6326	230.0000
44.6521	244.0000
44.6715	226.0000
44.6910	212.0000
44.7104	219.0000
44.7299	240.0000
44.7494	227.0000
44.7688	244.0000
44.7883	216.0000
44.8077	231.0000
44.8272	233.0000
44.8466	241.0000
44.8661	224.0000
44.8856	238.0000
44.9050	225.0000
44.9245	222.0000
44.9439	209.0000
44.9634	242.0000
44.9828	228.0000
45.0023	222.0000
45.0218	217.0000
45.0412	232.0000
45.0607	187.0000
45.0801	226.0000
45.0996	204.0000
45.1190	242.0000
45.1385	234.0000
45.1580	222.0000
45.1774	212.0000
45.1969	226.0000
45.2163	211.0000
45.2358	201.0000
45.2552	211.0000
45.2747	215.0000
45.2942	217.0000
45.3136	199.0000
45.3331	224.0000
45.3525	192.0000
45.3720	217.0000
45.3914	214.0000
45.4109	218.0000
45.4304	247.0000
45.4498	177.0000
45.4693	220.0000
45.4887	217.0000
45.5082	242.0000
45.5276	218.0000
45.5471	204.0000
45.5666	216.0000
45.5860	202.0000
45.6055	220.0000
45.6249	216.0000
45.6444	184.0000
45.6638	206.0000
45.6833	207.0000
45.7028	214.0000
45.7222	223.0000
45.7417	214.0000
45.7611	207.0000
45.7806	215.0000
45.8000	226.0000
45.8195	182.0000
45.8390	203.0000
45.8584	200.0000
45.8779	194.0000
45.8973	229.0000
45.9168	212.0000
45.9362	209.0000
45.9557	212.0000
45.9752	214.0000
45.9946	235.0000
46.0141	186.0000
46.0335	219.0000
46.0530	201.0000
46.0724	200.0000
46.0919	205.0000
46.1114	228.0000
46.1308	198.0000
46.1503	214.0000
46.1697	204.0000
46.1892	241.0000
46.2086	201.0000
46.2281	208.0000
46.2476	207.0000
46.2670	218.0000
46.2865	223.0000
46.3059	217.0000
46.3254	214.0000
46.3448	191.0000
46.3643	210.0000
46.3838	208.0000
46.4032	206.0000
46.4227	211.0000
46.4421	203.0000
46.4616	208.0000
46.4810	215.0000
46.5005	213.0000
46.5199	213.0000
46.5394	220.0000
46.5589	197.0000
46.5783	196.0000
46.5978	189.0000
46.6172	193.0000
46.6367	205.0000
46.6561	220.0000
46.6756	184.0000
46.6951	218.0000
46.7145	228.0000
46.7340	205.0000
46.7534	202.0000
46.7729	228.0000
46.7923	214.0000
46.8118	215.0000
46.8313	213.0000
46.8507	201.0000
46.8702	208.0000
46.8896	224.0000
46.9091	189.0000
46.9285	193.0000
46.9480	200.0000
46.9675	219.0000
46.9869	216.0000
47.0064	224.0000
47.0258	224.0000
47.0453	226.0000
47.0647	202.0000
47.0842	207.0000
47.1037	221.0000
47.1231	194.0000
47.1426	202.0000
47.1620	224.0000
47.1815	198.0000
47.2009	211.0000
47.2204	197.0000
47.2399	222.0000
47.2593	201.0000
47.2788	203.0000
47.2982	218.0000
47.3177	205.0000
47.3371	227.0000
47.3566	239.0000
47.3761	188.0000
47.3955	217.0000
47.4150	211.0000
47.4344	218.0000
47.4539	222.0000
47.4733	225.0000
47.4928	225.0000
47.5123	224.0000
47.5317	211.0000
47.5512	201.0000
47.5706	213.0000
47.5901	227.0000
47.6095	204.0000
47.6290	213.0000
47.6485	182.0000
47.6679	211.0000
47.6874	206.0000
47.7068	230.0000
47.7263	215.0000
47.7457	225.0000
47.7652	196.0000
47.7847	223.0000
47.8041	219.0000
47.8236	222.0000
47.8430	209.0000
47.8625	237.0000
47.8819	207.0000
47.9014	191.0000
47.9209	212.0000
47.9403	184.0000
47.9598	221.0000
47.9792	220.0000
47.9987	189.0000
48.0181	222.0000
48.0376	205.0000
48.0571	206.0000
48.0765	210.0000
48.0960	229.0000
48.1154	194.0000
48.1349	219.0000
48.1543	219.0000
48.1738	226.0000
48.1933	230.0000
48.2127	222.0000
48.2322	242.0000
48.2516	198.0000
48.2711	199.0000
48.2905	227.0000
48.3100	218.0000
48.3295	206.0000
48.3489	202.0000
48.3684	208.0000
48.3878	225.0000
48.4073	208.0000
48.4267	180.0000
48.4462	245.0000
48.4657	200.0000
48.4851	216.0000
48.5046	206.0000
48.5240	210.0000
48.5435	229.0000
48.5629	194.0000
48.5824	237.0000
48.6019	183.0000
48.6213	188.0000
48.6408	232.0000
48.6602	217.0000
48.6797	229.0000
48.6991	247.0000
48.7186	228.0000
48.7381	238.0000
48.7575	200.0000
48.7770	223.0000
48.7964	213.0000
48.8159	210.0000
48.8353	226.0000
48.8548	207.0000
48.8743	214.0000
48.8937	219.0000
48.9132	218.0000
48.9326	212.0000
48.9521	242.0000
48.9715	216.0000
48.9910	191.0000
49.0105	242.0000
49.0299	214.0000
49.0494	211.0000
49.0688	234.0000
49.0883	242.0000
49.1077	206.0000
49.1272	217.0000
49.1467	242.0000
49.1661	211.0000
49.1856	232.0000
49.2050	227.0000
49.2245	237.0000
49.2439	232.0000
49.2634	217.0000
49.2829	215.0000
49.3023	245.0000
49.3218	216.0000
49.3412	225.0000
49.3607	229.0000
49.3801	242.0000
49.3996	249.0000
49.4190	246.0000
49.4385	194.0000
49.4580	225.0000
49.4774	222.0000
49.4969	236.0000
49.5163	202.0000
49.5358	208.0000
49.5552	202.0000
49.5747	232.0000
49.5942	242.0000
49.6136	257.0000
49.6331	246.0000
49.6525	234.0000
49.6720	236.0000
49.6914	230.0000
49.7109	228.0000
49.7304	236.0000
49.7498	249.0000
49.7693	234.0000
49.7887	253.0000
49.8082	232.0000
49.8276	218.0000
49.8471	257.0000
49.8666	214.0000
49.8860	247.0000
49.9055	237.0000
49.9249	231.0000
49.9444	237.0000
49.9638	247.0000
49.9833	269.0000
50.0028	262.0000
50.0222	264.0000
50.0417	244.0000
50.0611	251.0000
50.0806	288.0000
50.1000	291.0000
50.1195	265.0000
50.1390	264.0000
50.1584	274.0000
50.1779	270.0000
50.1973	272.0000
50.2168	291.0000
50.2362	345.0000
50.2557	310.0000
50.2752	328.0000
50.2946	356.0000
50.3141	316.0000
50.3335	316.0000
50.3530	378.0000
50.3724	326.0000
50.3919	366.0000
50.4114	379.0000
50.4308	411.0000
50.4503	429.0000
50.4697	431.0000
50.4892	449.0000
50.5086	410.0000
50.5281	475.0000
50.5476	527.0000
50.5670	548.0000
50.5865	550.0000
50.6059	545.0000
50.6254	590.0000
50.6448	685.0000
50.6643	635.0000
50.6838	687.0000
50.7032	720.0000
50.7227	712.0000
50.7421	781.0000
50.7616	797.0000
50.7810	785.0000
50.8005	793.0000
50.8200	816.0000
50.8394	780.0000
50.8589	820.0000
50.8783	740.0000
50.8978	803.0000
50.9172	762.0000
50.9367	723.0000
50.9562	709.0000
50.9756	639.0000
50.9951	634.0000
51.0145	555.0000
51.0340	569.0000
51.0534	548.0000
51.0729	493.0000
51.0924	455.0000
51.1118	438.0000
51.1313	421.0000
51.1507	377.0000
51.1702	385.0000
51.1896	419.0000
51.2091	353.0000
51.2286	350.0000
51.2480	354.0000
51.2675	311.0000
51.2869	327.0000
51.3064	295.0000
51.3258	308.0000
51.3453	308.0000
51.3648	303.0000
51.3842	295.0000
51.4037	267.0000
51.4231	276.0000
51.4426	275.0000
51.4620	241.0000
51.4815	261.0000
51.5010	274.0000
51.5204	268.0000
51.5399	284.0000
51.5593	236.0000
51.5788	267.0000
51.5982	259.0000
51.6177	240.0000
51.6372	271.0000
51.6566	202.0000
51.6761	244.0000
51.6955	209.0000
51.7150	274.0000
51.7344	230.0000
51.7539	260.0000
51.7734	234.0000
51.7928	229.0000
51.8123	225.0000
51.8317	263.0000
51.8512	230.0000
51.8706	244.0000
51.8901	216.0000
51.9096	220.0000
51.9290	220.0000
51.9485	191.0000
51.9679	231.0000
51.9874	221.0000
52.0068	238.0000
52.0263	242.0000
52.0458	196.0000
52.0652	214.0000
52.0847	210.0000
52.1041	214.0000
52.1236	189.0000
52.1430	207.0000
52.1625	209.0000
52.1819	228.0000
52.2014	215.0000
52.2209	239.0000
52.2403	224.0000
52.2598	215.0000
52.2792	211.0000
52.2987	217.0000
52.3181	227.0000
52.3376	200.0000
52.3571	222.0000
52.3765	215.0000
52.3960	227.0000
52.4154	207.0000
52.4349	226.0000
52.4543	206.0000
52.4738	209.0000
52.4933	201.0000
52.5127	207.0000
52.5322	215.0000
52.5516	195.0000
52.5711	196.0000
52.5905	199.0000
52.6100	214.0000
52.6295	248.0000
52.6489	238.0000
52.6684	165.0000
52.6878	212.0000
52.7073	208.0000
52.7267	200.0000
52.7462	193.0000
52.7657	235.0000
52.7851	229.0000
52.8046	220.0000
52.8240	218.0000
52.8435	231.0000
52.8629	226.0000
52.8824	248.0000
52.9019	232.0000
52.9213	232.0000
52.9408	203.0000
52.9602	193.0000
52.9797	224.0000
52.9991	202.0000
53.0186	208.0000
53.0381	226.0000
53.0575	221.0000
53.0770	228.0000
53.0964	223.0000
53.1159	183.0000
53.1353	233.0000
53.1548	190.0000
53.1743	233.0000
53.1937	234.0000
53.2132	200.0000
53.2326	210.0000
53.2521	196.0000
53.2715	215.0000
53.2910	207.0000
53.3105	197.0000
53.3299	217.0000
53.3494	228.0000
53.3688	197.0000
53.3883	200.0000
53.4077	192.0000
53.4272	201.0000
53.4467	207.0000
53.4661	235.0000
53.4856	182.0000
53.5050	215.0000
53.5245	223.0000
53.5439	195.0000
53.5634	218.0000
53.5829	203.0000
53.6023	201.0000
53.6218	209.0000
53.6412	208.0000
53.6607	187.0000
53.6801	200.0000
53.6996	196.0000
53.7191	207.0000
53.7385	211.0000
53.7580	209.0000
53.7774	213.0000
53.7969	206.0000
53.8163	191.0000
53.8358	208.0000
53.8553	207.0000
53.8747	193.0000
53.8942	201.0000
53.9136	239.0000
53.9331	207.0000
53.9525	202.0000
53.9720	196.0000
53.9915	190.0000
54.0109	233.0000
54.0304	194.0000
54.0498	207.0000
54.0693	236.0000
54.0887	215.0000
54.1082	183.0000
54.1277	216.0000
54.1471	200.0000
54.1666	229.0000
54.1860	183.0000
54.2055	231.0000
54.2249	218.0000
54.2444	210.0000
54.2639	210.0000
54.2833	209.0000
54.3028	195.0000
54.3222	205.0000
54.3417	222.0000
54.3611	211.0000
54.3806	227.0000
54.4001	210.0000
54.4195	186.0000
54.4390	226.0000
54.4584	218.0000
54.4779	204.0000
54.4973	196.0000
54.5168	215.0000
54.5363	203.0000
54.5557	223.0000
54.5752	217.0000
54.5946	202.0000
54.6141	227.0000
54.6335	226.0000
54.6530	180.0000
54.6725	218.0000
54.6919	209.0000
54.7114	218.0000
54.7308	199.0000
54.7503	220.0000
54.7697	235.0000
54.7892	195.0000
54.8087	239.0000
54.8281	213.0000
54.8476	213.0000
54.8670	209.0000
54.8865	214.0000
54.9059	218.0000
54.9254	211.0000
54.9448	220.0000
54.9643	204.0000
54.9838	229.0000
55.0032	205.0000
55.0227	199.0000
55.0421	254.0000
55.0616	229.0000
55.0810	191.0000
55.1005	227.0000
55.1200	184.0000
55.1394	218.0000
55.1589	216.0000
55.1783	192.0000
55.1978	208.0000
55.2172	220.0000
55.2367	207.0000
55.2562	208.0000
55.2756	197.0000
55.2951	214.0000
55.3145	222.0000
55.3340	227.0000
55.3534	217.0000
55.3729	207.0000
55.3924	212.0000
55.4118	203.0000
55.4313	194.0000
55.4507	219.0000
55.4702	226.0000
55.4896	204.0000
55.5091	234.0000
55.5286	220.0000
55.5480	188.0000
55.5675	231.0000
55.5869	220.0000
55.6064	208.0000
55.6258	204.0000
55.6453	225.0000
55.6648	207.0000
55.6842	210.0000
55.7037	200.0000
55.7231	213.0000
55.7426	191.0000
55.7620	211.0000
55.7815	205.0000
55.8010	189.0000
55.8204	192.0000
55.8399	218.0000
55.8593	225.0000
55.8788	210.0000
55.8982	210.0000
55.9177	214.0000
55.9372	216.0000
55.9566	200.0000
55.9761	218.0000
55.9955	251.0000
56.0150	229.0000
56.0344	239.0000
56.0539	217.0000
56.0734	218.0000
56.0928	219.0000
56.1123	217.0000
56.1317	214.0000
56.1512	218.0000
56.1706	215.0000
56.1901	214.0000
56.2096	188.0000
56.2290	215.0000
56.2485	199.0000
56.2679	238.0000
56.2874	220.0000
56.3068	201.0000
56.3263	220.0000
56.3458	220.0000
56.3652	184.0000
56.3847	203.0000
56.4041	207.0000
56.4236	192.0000
56.4430	227.0000
56.4625	214.0000
56.4820	202.0000
56.5014	212.0000
56.5209	211.0000
56.5403	187.0000
56.5598	206.0000
56.5792	227.0000
56.5987	210.0000
56.6182	226.0000
56.6376	236.0000
56.6571	213.0000
56.6765	195.0000
56.6960	209.0000
56.7154	207.0000
56.7349	213.0000
56.7544	200.0000
56.7738	197.0000
56.7933	195.0000
56.8127	228.0000
56.8322	212.0000
56.8516	205.0000
56.8711	222.0000
56.8906	184.0000
56.9100	211.0000
56.9295	202.0000
56.9489	203.0000
56.9684	222.0000
56.9878	210.0000
57.0073	220.0000
57.0268	201.0000
57.0462	240.0000
57.0657	219.0000
57.0851	230.0000
57.1046	196.0000
57.1240	180.0000
57.1435	204.0000
57.1630	202.0000
57.1824	197.0000
57.2019	194.0000
57.2213	181.0000
57.2408	211.0000
57.2602	186.0000
57.2797	229.0000
57.2992	240.0000
57.3186	216.0000
57.3381	224.0000
57.3575	217.0000
57.3770	232.0000
57.3964	218.0000
57.4159	221.0000
57.4354	220.0000
57.4548	212.0000
57.4743	229.0000
57.4937	206.0000
57.5132	186.0000
57.5326	227.0000
57.5521	213.0000
57.5716	212.0000
57.5910	207.0000
57.6105	233.0000
57.6299	214.0000
57.6494	197.0000
57.6688	217.0000
57.6883	214.0000
57.7077	208.0000
57.7272	222.0000
57.7467	223.0000
57.7661	195.0000
57.7856	216.0000
57.8050	180.0000
57.8245	201.0000
57.8439	213.0000
57.8634	209.0000
57.8829	205.0000
57.9023	206.0000
57.9218	204.0000
57.9412	224.0000
57.9607	214.0000
57.9801	210.0000
57.9996	216.0000
58.0191	201.0000
58.0385	212.0000
58.0580	194.0000
58.0774	194.0000
58.0969	204.0000
58.1163	193.0000
58.1358	212.0000
58.1553	189.0000
58.1747	195.0000
58.1942	225.0000
58.2136	196.0000
58.2331	204.0000
58.2525	206.0000
58.2720	190.0000
58.2915	225.0000
58.3109	207.0000
58.3304	220.0000
58.3498	200.0000
58.3693	179.0000
58.3887	196.0000
58.4082	195.0000
58.4277	206.0000
58.4471	175.0000
58.4666	208.0000
58.4860	217.0000
58.5055	202.0000
58.5249	195.0000
58.5444	209.0000
58.5639	218.0000
58.5833	231.0000
58.6028	237.0000
58.6222	216.0000
58.6417	206.0000
58.6611	212.0000
58.6806	239.0000
58.7001	184.0000
58.7195	203.0000
58.7390	208.0000
58.7584	197.0000
58.7779	203.0000
58.7973	181.0000
58.8168	220.0000
58.8363	229.0000
58.8557	197.0000
58.8752	227.0000
58.8946	228.0000
58.9141	218.0000
58.9335	218.0000
58.9530	206.0000
58.9725	212.0000
58.9919	187.0000
59.0114	239.0000
59.0308	180.0000
59.0503	198.0000
59.0697	185.0000
59.0892	208.0000
59.1087	203.0000
59.1281	198.0000
59.1476	228.0000
59.1670	216.0000
59.1865	213.0000
59.2059	230.0000
59.2254	198.0000
59.2449	214.0000
59.2643	225.0000
59.2838	208.0000
59.3032	219.0000
59.3227	205.0000
59.3421	203.0000
59.3616	195.0000
59.3811	220.0000
59.4005	214.0000
59.4200	245.0000
59.4394	212.0000
59.4589	222.0000
59.4783	217.0000
59.4978	223.0000
59.5173	205.0000
59.5367	206.0000
59.5562	198.0000
59.5756	209.0000
59.5951	215.0000
59.6145	230.0000
59.6340	226.0000
59.6535	200.0000
59.6729	217.0000
59.6924	223.0000
59.7118	190.0000
59.7313	204.0000
59.7507	193.0000
59.7702	224.0000
59.7897	211.0000
59.8091	221.0000
59.8286	198.0000
59.8480	218.0000
59.8675	230.0000
59.8869	204.0000
59.9064	212.0000
59.9259	232.0000
59.9453	220.0000
59.9648	206.0000
59.9842	202.0000
60.0037	221.0000
60.0231	204.0000
60.0426	190.0000
60.0621	182.0000
60.0815	222.0000
60.1010	184.0000
60.1204	226.0000
60.1399	212.0000
60.1593	196.0000
60.1788	195.0000
60.1983	212.0000
60.2177	216.0000
60.2372	184.0000
60.2566	199.0000
60.2761	210.0000
60.2955	223.0000
60.3150	213.0000
60.3345	202.0000
60.3539	214.0000
60.3734	224.0000
60.3928	210.0000
60.4123	213.0000
60.4317	205.0000
60.4512	232.0000
60.4706	192.0000
60.4901	207.0000
60.5096	199.0000
60.5290	212.0000
60.5485	214.0000
60.5679	239.0000
60.5874	174.0000
60.6068	212.0000
60.6263	200.0000
60.6458	209.0000
60.6652	210.0000
60.6847	185.0000
60.7041	219.0000
60.7236	201.0000
60.7430	216.0000
60.7625	202.0000
60.7820	216.0000
60.8014	211.0000
60.8209	191.0000
60.8403	214.0000
60.8598	197.0000
60.8792	200.0000
60.8987	212.0000
60.9182	191.0000
60.9376	218.0000
60.9571	208.0000
60.9765	216.0000
60.9960	206.0000
61.0154	198.0000
61.0349	203.0000
61.0544	233.0000
61.0738	233.0000
61.0933	198.0000
61.1127	220.0000
61.1322	208.0000
61.1516	195.0000
61.1711	214.0000
61.1906	190.0000
61.2100	208.0000
61.2295	193.0000
61.2489	218.0000
61.2684	207.0000
61.2878	234.0000
61.3073	205.0000
61.3268	213.0000
61.3462	247.0000
61.3657	231.0000
61.3851	204.0000
61.4046	234.0000
61.4240	209.0000
61.4435	193.0000
61.4630	189.0000
61.4824	209.0000
61.5019	198.0000
61.5213	178.0000
61.5408	181.0000
61.5602	203.0000
61.5797	202.0000
61.5992	212.0000
61.6186	218.0000
61.6381	210.0000
61.6575	205.0000
61.6770	215.0000
61.6964	215.0000
61.7159	201.0000
61.7354	211.0000
61.7548	213.0000
61.7743	204.0000
61.7937	207.0000
61.8132	205.0000
61.8326	227.0000
61.8521	213.0000
61.8716	212.0000
61.8910	210.0000
61.9105	221.0000
61.9299	204.0000
61.9494	200.0000
61.9688	236.0000
61.9883	200.0000
62.0078	197.0000
62.0272	214.0000
62.0467	204.0000
62.0661	230.0000
62.0856	245.0000
62.1050	227.0000
62.1245	224.0000
62.1440	216.0000
62.1634	212.0000
62.1829	234.0000
62.2023	214.0000
62.2218	201.0000
62.2412	226.0000
62.2607	243.0000
62.2802	194.0000
62.2996	208.0000
62.3191	183.0000
62.3385	197.0000
62.3580	181.0000
62.3774	211.0000
62.3969	218.0000
62.4164	205.0000
62.4358	213.0000
62.4553	196.0000
62.4747	205.0000
62.4942	183.0000
62.5136	206.0000
62.5331	204.0000
62.5526	202.0000
62.5720	227.0000
62.5915	205.0000
62.6109	199.0000
62.6304	172.0000
62.6498	199.0000
62.6693	226.0000
62.6888	204.0000
62.7082	192.0000
62.7277	226.0000
62.7471	195.0000
62.7666	231.0000
62.7860	218.0000
62.8055	199.0000
62.8250	219.0000
62.8444	217.0000
62.8639	181.0000
62.8833	204.0000
62.9028	220.0000
62.9222	208.0000
62.9417	212.0000
62.9612	176.0000
62.9806	218.0000
63.0001	182.0000
63.0195	240.0000
63.0390	215.0000
63.0584	204.0000
63.0779	209.0000
63.0974	221.0000
63.1168	224.0000
63.1363	176.0000
63.1557	211.0000
63.1752	195.0000
63.1946	197.0000
63.2141	226.0000
63.2336	190.0000
63.2530	211.0000
63.2725	185.0000
63.2919	208.0000
63.3114	215.0000
63.3308	201.0000
63.3503	212.0000
63.3697	208.0000
63.3892	259.0000
63.4087	201.0000
63.4281	196.0000
63.4476	210.0000
63.4670	217.0000
63.4865	213.0000
63.5059	222.0000
63.5254	197.0000
63.5449	234.0000
63.5643	230.0000
63.5838	234.0000
63.6032	248.0000
63.6227	211.0000
63.6421	223.0000
63.6616	230.0000
63.6811	210.0000
63.7005	212.0000
63.7200	202.0000
63.7394	209.0000
63.7589	207.0000
63.7783	209.0000
63.7978	198.0000
63.8173	222.0000
63.8367	216.0000
63.8562	225.0000
63.8756	214.0000
63.8951	223.0000
63.9145	219.0000
63.9340	217.0000
63.9535	201.0000
63.9729	209.0000
63.9924	193.0000
64.0118	229.0000
64.0313	232.0000
64.0507	209.0000
64.0702	219.0000
64.0897	217.0000
64.1091	221.0000
64.1286	213.0000
64.1480	229.0000
64.1675	183.0000
64.1869	209.0000
64.2064	224.0000
64.2259	213.0000
64.2453	194.0000
64.2648	231.0000
64.2842	210.0000
64.3037	204.0000
64.3231	195.0000
64.3426	205.0000
64.3621	201.0000
64.3815	197.0000
64.4010	196.0000
64.4204	200.0000
64.4399	227.0000
64.4593	211.0000
64.4788	185.0000
64.4983	232.0000
64.5177	202.0000
64.5372	209.0000
64.5566	208.0000
64.5761	210.0000
64.5955	211.0000
64.6150	194.0000
64.6345	235.0000
64.6539	176.0000
64.6734	214.0000
64.6928	224.0000
64.7123	207.0000
64.7317	213.0000
64.7512	220.0000
64.7707	194.0000
64.7901	215.0000
64.8096	240.0000
64.8290	244.0000
64.8485	236.0000
64.8679	215.0000
64.8874	224.0000
64.9069	218.0000
64.9263	205.0000
64.9458	202.0000
64.9652	214.0000
64.9847	209.0000
65.0041	194.0000
65.0236	213.0000
65.0431	184.0000
65.0625	218.0000
65.0820	219.0000
65.1014	195.0000
65.1209	213.0000
65.1403	207.0000
65.1598	199.0000
65.1793	204.0000
65.1987	218.0000
65.2182	206.0000
65.2376	195.0000
65.2571	201.0000
65.2765	212.0000
65.2960	202.0000
65.3155	220.0000
65.3349	226.0000
65.3544	224.0000
65.3738	212.0000
65.3933	223.0000
65.4127	216.0000
65.4322	211.0000
65.4517	218.0000
65.4711	207.0000
65.4906	180.0000
65.5100	241.0000
65.5295	221.0000
65.5489	220.0000
65.5684	225.0000
65.5879	194.0000
65.6073	216.0000
65.6268	222.0000
65.6462	211.0000
65.6657	227.0000
65.6851	236.0000
65.7046	218.0000
65.7241	226.0000
65.7435	187.0000
65.7630	203.0000
65.7824	213.0000
65.8019	188.0000
65.8213	197.0000
65.8408	196.0000
65.8603	224.0000
65.8797	194.0000
65.8992	221.0000
65.9186	238.0000
65.9381	201.0000
65.9575	220.0000
65.9770	184.0000
65.9965	228.0000
66.0159	225.0000
66.0354	241.0000
66.0548	213.0000
66.0743	222.0000
66.0937	229.0000
66.1132	194.0000
66.1326	204.0000
66.1521	195.0000
66.1716	219.0000
66.1910	221.0000
66.2105	209.0000
66.2299	243.0000
66.2494	175.0000
66.2688	199.0000
66.2883	203.0000
66.3078	219.0000
66.3272	203.0000
66.3467	217.0000
66.3661	203.0000
66.3856	194.0000
66.4050	206.0000
66.4245	216.0000
66.4440	221.0000
66.4634	234.0000
66.4829	212.0000
66.5023	220.0000
66.5218	241.0000
66.5412	209.0000
66.5607	181.0000
66.5802	218.0000
66.5996	215.0000
66.6191	213.0000
66.6385	199.0000
66.6580	195.0000
66.6774	236.0000
66.6969	215.0000
66.7164	205.0000
66.7358	216.0000
66.7553	171.0000
66.7747	182.0000
66.7942	228.0000
66.8136	224.0000
66.8331	192.0000
66.8526	202.0000
66.8720	202.0000
66.8915	190.0000
66.9109	239.0000
66.9304	225.0000
66.9498	236.0000
66.9693	217.0000
66.9888	194.0000
67.0082	194.0000
67.0277	230.0000
67.0471	188.0000
67.0666	200.0000
67.0860	242.0000
67.1055	181.0000
67.1250	206.0000
67.1444	211.0000
67.1639	205.0000
67.1833	209.0000
67.2028	223.0000
67.2222	206.0000
67.2417	196.0000
67.2612	201.0000
67.2806	229.0000
67.3001	214.0000
67.3195	192.0000
67.3390	210.0000
67.3584	216.0000
67.3779	242.0000
67.3974	205.0000
67.4168	230.0000
67.4363	218.0000
67.4557	204.0000
67.4752	193.0000
67.4946	211.0000
67.5141	230.0000
67.5336	230.0000
67.5530	195.0000
67.5725	217.0000
67.5919	205.0000
67.6114	224.0000
67.6308	218.0000
67.6503	197.0000
67.6698	234.0000
67.6892	251.0000
67.7087	222.0000
67.7281	184.0000
67.7476	214.0000
67.7670	215.0000
67.7865	252.0000
67.8060	228.0000
67.8254	206.0000
67.8449	173.0000
67.8643	221.0000
67.8838	205.0000
67.9032	233.0000
67.9227	219.0000
67.9422	213.0000
67.9616	222.0000
67.9811	221.0000
68.0005	209.0000
68.0200	190.0000
68.0394	191.0000
68.0589	225.0000
68.0784	210.0000
68.0978	229.0000
68.1173	225.0000
68.1367	210.0000
68.1562	187.0000
68.1756	189.0000
68.1951	199.0000
68.2146	206.0000
68.2340	230.0000
68.2535	205.0000
68.2729	241.0000
68.2924	192.0000
68.3118	212.0000
68.3313	200.0000
68.3508	215.0000
68.3702	202.0000
68.3897	191.0000
68.4091	225.0000
68.4286	194.0000
68.4480	181.0000
68.4675	234.0000
68.4870	198.0000
68.5064	192.0000
68.5259	194.0000
68.5453	211.0000
68.5648	191.0000
68.5842	193.0000
68.6037	206.0000
68.6232	206.0000
68.6426	226.0000
68.6621	272.0000
68.6815	203.0000
68.7010	237.0000
68.7204	213.0000
68.7399	189.0000
68.7594	194.0000
68.7788	199.0000
68.7983	196.0000
68.8177	197.0000
68.8372	204.0000
68.8566	209.0000
68.8761	214.0000
68.8955	219.0000
68.9150	213.0000
68.9345	208.0000
68.9539	235.0000
68.9734	191.0000
68.9928	202.0000
69.0123	216.0000
69.0317	204.0000
69.0512	235.0000
69.0707	198.0000
69.0901	231.0000
69.1096	198.0000
69.1290	191.0000
69.1485	216.0000
69.1679	200.0000
69.1874	206.0000
69.2069	225.0000
69.2263	203.0000
69.2458	203.0000
69.2652	179.0000
69.2847	227.0000
69.3041	223.0000
69.3236	212.0000
69.3431	205.0000
69.3625	194.0000
69.3820	214.0000
69.4014	200.0000
69.4209	251.0000
69.4403	199.0000
69.4598	205.0000
69.4793	209.0000
69.4987	217.0000
69.5182	198.0000
69.5376	206.0000
69.5571	223.0000
69.5765	189.0000
69.5960	183.0000
69.6155	188.0000
69.6349	205.0000
69.6544	234.0000
69.6738	207.0000
69.6933	231.0000
69.7127	213.0000
69.7322	208.0000
69.7517	227.0000
69.7711	211.0000
69.7906	212.0000
69.8100	214.0000
69.8295	216.0000
69.8489	198.0000
69.8684	213.0000
69.8879	219.0000
69.9073	209.0000
69.9268	215.0000
69.9462	213.0000
69.9657	209.0000
69.9851	195.0000
70.0046	211.0000
70.0241	228.0000
70.0435	216.0000
70.0630	214.0000
70.0824	213.0000
70.1019	187.0000
70.1213	237.0000
70.1408	205.0000
70.1603	222.0000
70.1797	199.0000
70.1992	219.0000
70.2186	202.0000
70.2381	224.0000
70.2575	218.0000
70.2770	221.0000
70.2965	213.0000
70.3159	208.0000
70.3354	203.0000
70.3548	214.0000
70.3743	196.0000
70.3937	175.0000
70.4132	223.0000
70.4327	209.0000
70.4521	186.0000
70.4716	215.0000
70.4910	242.0000
70.5105	206.0000
70.5299	208.0000
70.5494	244.0000
70.5689	238.0000
70.5883	208.0000
70.6078	229.0000
70.6272	204.0000
70.6467	192.0000
70.6661	214.0000
70.6856	179.0000
70.7051	219.0000
70.7245	231.0000
70.7440	199.0000
70.7634	213.0000
70.7829	211.0000
70.8023	195.0000
70.8218	190.0000
70.8413	220.0000
70.8607	196.0000
70.8802	205.0000
70.8996	198.0000
70.9191	213.0000
70.9385	226.0000
70.9580	234.0000
70.9775	223.0000
70.9969	189.0000
71.0164	238.0000
71.0358	203.0000
71.0553	225.0000
71.0747	201.0000
71.0942	202.0000
71.1137	221.0000
71.1331	224.0000
71.1526	211.0000
71.1720	234.0000
71.1915	215.0000
71.2109	223.0000
71.2304	210.0000
71.2499	214.0000
71.2693	224.0000
71.2888	203.0000
71.3082	207.0000
71.3277	224.0000
71.3471	224.0000
71.3666	225.0000
71.3861	194.0000
71.4055	208.0000
71.4250	204.0000
71.4444	204.0000
71.4639	248.0000
71.4833	201.0000
71.5028	193.0000
71.5223	206.0000
71.5417	217.0000
71.5612	199.0000
71.5806	186.0000
71.6001	226.0000
71.6195	231.0000
71.6390	192.0000
71.6584	206.0000
71.6779	195.0000
71.6974	208.0000
71.7168	211.0000
71.7363	202.0000
71.7557	220.0000
71.7752	207.0000
71.7946	213.0000
71.8141	207.0000
71.8336	217.0000
71.8530	212.0000
71.8725	230.0000
71.8919	212.0000
71.9114	187.0000
71.9308	236.0000
71.9503	209.0000
71.9698	212.0000
71.9892	216.0000
72.0087	209.0000
72.0281	202.0000
72.0476	224.0000
72.0670	217.0000
72.0865	214.0000
72.1060	209.0000
72.1254	217.0000
72.1449	202.0000
72.1643	211.0000
72.1838	199.0000
72.2032	212.0000
72.2227	225.0000
72.2422	236.0000
72.2616	219.0000
72.2811	221.0000
72.3005	198.0000
72.3200	211.0000
72.3394	206.0000
72.3589	219.0000
72.3784	221.0000
72.3978	234.0000
72.4173	236.0000
72.4367	209.0000
72.4562	202.0000
72.4756	190.0000
72.4951	212.0000
72.5146	209.0000
72.5340	212.0000
72.5535	204.0000
72.5729	219.0000
72.5924	217.0000
72.6118	225.0000
72.6313	194.0000
72.6508	220.0000
72.6702	188.0000
72.6897	228.0000
72.7091	201.0000
72.7286	192.0000
72.7480	215.0000
72.7675	207.0000
72.7870	211.0000
72.8064	216.0000
72.8259	205.0000
72.8453	261.0000
72.8648	200.0000
72.8842	220.0000
72.9037	224.0000
72.9232	224.0000
72.9426	229.0000
72.9621	214.0000
72.9815	191.0000
73.0010	204.0000
73.0204	196.0000
73.0399	228.0000
73.0594	240.0000
73.0788	209.0000
73.0983	204.0000
73.1177	227.0000
73.1372	209.0000
73.1566	192.0000
73.1761	211.0000
73.1956	205.0000
73.2150	204.0000
73.2345	209.0000
73.2539	224.0000
73.2734	212.0000
73.2928	208.0000
73.3123	207.0000
73.3318	205.0000
73.3512	199.0000
73.3707	225.0000
73.3901	189.0000
73.4096	222.0000
73.4290	221.0000
73.4485	210.0000
73.4680	216.0000
73.4874	203.0000
73.5069	211.0000
73.5263	207.0000
73.5458	217.0000
73.5652	235.0000
73.5847	208.0000
73.6042	201.0000
73.6236	232.0000
73.6431	250.0000
73.6625	235.0000
73.6820	247.0000
73.7014	221.0000
73.7209	226.0000
73.7404	236.0000
73.7598	210.0000
73.7793	211.0000
73.7987	224.0000
73.8182	211.0000
73.8376	219.0000
73.8571	206.0000
73.8766	228.0000
73.8960	222.0000
73.9155	215.0000
73.9349	242.0000
73.9544	225.0000
73.9738	227.0000
73.9933	223.0000
74.0128	211.0000
74.0322	247.0000
74.0517	190.0000
74.0711	223.0000
74.0906	262.0000
74.1100	234.0000
74.1295	224.0000
74.1490	207.0000
74.1684	202.0000
74.1879	226.0000
74.2073	236.0000
74.2268	230.0000
74.2462	192.0000
74.2657	222.0000
74.2852	236.0000
74.3046	231.0000
74.3241	222.0000
74.3435	263.0000
74.3630	220.0000
74.3824	260.0000
74.4019	245.0000
74.4213	259.0000
74.4408	255.0000
74.4603	259.0000
74.4797	249.0000
74.4992	217.0000
74.5186	250.0000
74.5381	295.0000
74.5575	263.0000
74.5770	261.0000
74.5965	244.0000
74.6159	254.0000
74.6354	274.0000
74.6548	298.0000
74.6743	289.0000
74.6937	274.0000
74.7132	293.0000
74.7327	283.0000
74.7521	304.0000
74.7716	296.0000
74.7910	281.0000
74.8105	285.0000
74.8299	306.0000
74.8494	306.0000
74.8689	289.0000
74.8883	301.0000
74.9078	270.0000
74.9272	317.0000
74.9467	304.0000
74.9661	249.0000
74.9856	283.0000
75.0051	259.0000
75.0245	269.0000
75.0440	254.0000
75.0634	261.0000
75.0829	292.0000
75.1023	267.0000
75.1218	275.0000
75.1413	253.0000
75.1607	249.0000
75.1802	226.0000
75.1996	252.0000
75.2191	234.0000
75.2385	230.0000
75.2580	246.0000
75.2775	230.0000
75.2969	215.0000
75.3164	216.0000
75.3358	242.0000
75.3553	248.0000
75.3747	263.0000
75.3942	231.0000
75.4137	229.0000
75.4331	225.0000
75.4526	248.0000
75.4720	220.0000
75.4915	219.0000
75.5109	250.0000
75.5304	231.0000
75.5499	238.0000
75.5693	226.0000
75.5888	236.0000
75.6082	173.0000
75.6277	242.0000
75.6471	219.0000
75.6666	221.0000
75.6861	217.0000
75.7055	233.0000
75.7250	239.0000
75.7444	204.0000
75.7639	217.0000
75.7833	253.0000
75.8028	208.0000
75.8223	226.0000
75.8417	238.0000
75.8612	231.0000
75.8806	212.0000
75.9001	207.0000
75.9195	209.0000
75.9390	204.0000
75.9585	206.0000
75.9779	217.0000
75.9974	218.0000
76.0168	221.0000
76.0363	207.0000
76.0557	207.0000
76.0752	223.0000
76.0947	210.0000
76.1141	230.0000
76.1336	226.0000
76.1530	220.0000
76.1725	234.0000
76.1919	221.0000
76.2114	210.0000
76.2309	199.0000
76.2503	204.0000
76.2698	231.0000
76.2892	208.0000
76.3087	249.0000
76.3281	223.0000
76.3476	201.0000
76.3671	195.0000
76.3865	241.0000
76.4060	219.0000
76.4254	215.0000
76.4449	222.0000
76.4643	214.0000
76.4838	242.0000
76.5033	239.0000
76.5227	196.0000
76.5422	222.0000
76.5616	201.0000
76.5811	217.0000
76.6005	212.0000
76.6200	231.0000
76.6395	225.0000
76.6589	216.0000
76.6784	221.0000
76.6978	225.0000
76.7173	216.0000
76.7367	188.0000
76.7562	207.0000
76.7757	211.0000
76.7951	211.0000
76.8146	225.0000
76.8340	199.0000
76.8535	198.0000
76.8729	207.0000
76.8924	211.0000
76.9119	226.0000
76.9313	211.0000
76.9508	207.0000
76.9702	219.0000
76.9897	223.0000
77.0091	218.0000
77.0286	239.0000
77.0481	224.0000
77.0675	233.0000
77.0870	220.0000
77.1064	220.0000
77.1259	205.0000
77.1453	203.0000
77.1648	224.0000
77.1843	209.0000
77.2037	207.0000
77.2232	234.0000
77.2426	209.0000
77.2621	227.0000
77.2815	238.0000
77.3010	211.0000
77.3204	222.0000
77.3399	200.0000
77.3594	238.0000
77.3788	255.0000
77.3983	208.0000
77.4177	213.0000
77.4372	228.0000
77.4566	208.0000
77.4761	215.0000
77.4956	203.0000
77.5150	206.0000
77.5345	200.0000
77.5539	218.0000
77.5734	209.0000
77.5928	215.0000
77.6123	238.0000
77.6318	218.0000
77.6512	213.0000
77.6707	241.0000
77.6901	214.0000
77.7096	238.0000
77.7290	229.0000
77.7485	205.0000
77.7680	196.0000
77.7874	217.0000
77.8069	246.0000
77.8263	212.0000
77.8458	213.0000
77.8652	225.0000
77.8847	200.0000
77.9042	235.0000
77.9236	234.0000
77.9431	229.0000
77.9625	230.0000
77.9820	228.0000
78.0014	225.0000
78.0209	216.0000
78.0404	199.0000
78.0598	224.0000
78.0793	209.0000
78.0987	218.0000
78.1182	228.0000
78.1376	212.0000
78.1571	208.0000
78.1766	211.0000
78.1960	231.0000
78.2155	178.0000
78.2349	195.0000
78.2544	220.0000
78.2738	219.0000
78.2933	213.0000
78.3128	225.0000
78.3322	200.0000
78.3517	190.0000
78.3711	216.0000
78.3906	217.0000
78.4100	220.0000
78.4295	228.0000
78.4490	228.0000
78.4684	225.0000
78.4879	210.0000
78.5073	215.0000
78.5268	227.0000
78.5462	200.0000
78.5657	201.0000
78.5852	205.0000
78.6046	213.0000
78.6241	192.0000
78.6435	201.0000
78.6630	221.0000
78.6824	217.0000
78.7019	200.0000
78.7214	247.0000
78.7408	211.0000
78.7603	209.0000
78.7797	195.0000
78.7992	224.0000
78.8186	208.0000
78.8381	216.0000
78.8576	208.0000
78.8770	209.0000
78.8965	201.0000
78.9159	204.0000
78.9354	242.0000
78.9548	214.0000
78.9743	228.0000
78.9938	229.0000
79.0132	221.0000
79.0327	206.0000
79.0521	221.0000
79.0716	223.0000
79.0910	223.0000
79.1105	201.0000
79.1300	219.0000
79.1494	212.0000
79.1689	216.0000
79.1883	204.0000
79.2078	237.0000
79.2272	204.0000
79.2467	208.0000
79.2662	195.0000
79.2856	225.0000
79.3051	199.0000
79.3245	233.0000
79.3440	206.0000
79.3634	201.0000
79.3829	225.0000
79.4024	207.0000
79.4218	201.0000
79.4413	218.0000
79.4607	239.0000
79.4802	240.0000
79.4996	202.0000
79.5191	204.0000
79.5386	193.0000
79.5580	204.0000
79.5775	206.0000
79.5969	225.0000
79.6164	227.0000
79.6358	224.0000
79.6553	230.0000
79.6748	198.0000
79.6942	217.0000
79.7137	212.0000
79.7331	200.0000
79.7526	227.0000
79.7720	223.0000
79.7915	200.0000
79.8110	199.0000
79.8304	191.0000
79.8499	224.0000
79.8693	200.0000
79.8888	203.0000
79.9082	212.0000
79.9277	206.0000
79.9472	244.0000
79.9666	222.0000
79.9861	221.0000
80.0055	211.0000
80.0250	216.0000
80.0444	234.0000
80.0639	212.0000
80.0833	199.0000
80.1028	199.0000
80.1223	233.0000
80.1417	218.0000
80.1612	214.0000
80.1806	236.0000
80.2001	207.0000
80.2195	207.0000
80.2390	190.0000
80.2585	213.0000
80.2779	218.0000
80.2974	216.0000
80.3168	178.0000
80.3363	193.0000
80.3557	220.0000
80.3752	219.0000
80.3947	215.0000
80.4141	194.0000
80.4336	214.0000
80.4530	197.0000
80.4725	204.0000
80.4919	184.0000
80.5114	199.0000
80.5309	193.0000
80.5503	221.0000
80.5698	199.0000
80.5892	216.0000
80.6087	206.0000
80.6281	223.0000
80.6476	246.0000
80.6671	206.0000
80.6865	213.0000
80.7060	216.0000
80.7254	208.0000
80.7449	216.0000
80.7643	227.0000
80.7838	219.0000
80.8033	192.0000
80.8227	231.0000
80.8422	224.0000
80.8616	215.0000
80.8811	249.0000
80.9005	214.0000
80.9200	237.0000
80.9395	209.0000
80.9589	198.0000
80.9784	215.0000
80.9978	212.0000
81.0173	216.0000
81.0367	217.0000
81.0562	210.0000
81.0757	192.0000
81.0951	221.0000
81.1146	200.0000
81.1340	202.0000
81.1535	194.0000
81.1729	236.0000
81.1924	182.0000
81.2119	195.0000
81.2313	196.0000
81.2508	253.0000
81.2702	206.0000
81.2897	232.0000
81.3091	224.0000
81.3286	219.0000
81.3481	221.0000
81.3675	238.0000
81.3870	212.0000
81.4064	234.0000
81.4259	236.0000
81.4453	211.0000
81.4648	234.0000
81.4843	244.0000
81.5037	230.0000
81.5232	198.0000
81.5426	221.0000
81.5621	214.0000
81.5815	208.0000
81.6010	239.0000
81.6205	196.0000
81.6399	210.0000
81.6594	209.0000
81.6788	213.0000
81.6983	214.0000
81.7177	233.0000
81.7372	211.0000
81.7567	217.0000
81.7761	198.0000
81.7956	208.0000
81.8150	212.0000
81.8345	224.0000
81.8539	214.0000
81.8734	229.0000
81.8929	213.0000
81.9123	213.0000
81.9318	183.0000
81.9512	192.0000
81.9707	243.0000
81.9901	210.0000
82.0096	240.0000
82.0291	207.0000
82.0485	221.0000
82.0680	249.0000
82.0874	228.0000
82.1069	234.0000
82.1263	217.0000
82.1458	197.0000
82.1653	213.0000
82.1847	194.0000
82.2042	221.0000
82.2236	241.0000
82.2431	200.0000
82.2625	209.0000
82.2820	251.0000
82.3015	198.0000
82.3209	193.0000
82.3404	238.0000
82.3598	188.0000
82.3793	218.0000
82.3987	212.0000
82.4182	224.0000
82.4377	199.0000
82.4571	214.0000
82.4766	218.0000
82.4960	180.0000
82.5155	199.0000
82.5349	209.0000
82.5544	222.0000
82.5739	213.0000
82.5933	224.0000
82.6128	205.0000
82.6322	211.0000
82.6517	202.0000
82.6711	198.0000
82.6906	223.0000
82.7101	206.0000
82.7295	219.0000
82.7490	225.0000
82.7684	223.0000
82.7879	187.0000
82.8073	205.0000
82.8268	202.0000
82.8462	230.0000
82.8657	230.0000
82.8852	214.0000
82.9046	188.0000
82.9241	189.0000
82.9435	245.0000
82.9630	205.0000
82.9824	205.0000
83.0019	212.0000
83.0214	209.0000
83.0408	206.0000
83.0603	214.0000
83.0797	206.0000
83.0992	206.0000
83.1186	220.0000
83.1381	214.0000
83.1576	221.0000
83.1770	261.0000
83.1965	230.0000
83.2159	213.0000
83.2354	197.0000
83.2548	197.0000
83.2743	183.0000
83.2938	205.0000
83.3132	218.0000
83.3327	234.0000
83.3521	238.0000
83.3716	186.0000
83.3910	196.0000
83.4105	199.0000
83.4300	217.0000
83.4494	233.0000
83.4689	209.0000
83.4883	213.0000
83.5078	219.0000
83.5272	210.0000
83.5467	205.0000
83.5662	219.0000
83.5856	209.0000
83.6051	211.0000
83.6245	193.0000
83.6440	251.0000
83.6634	221.0000
83.6829	224.0000
83.7024	220.0000
83.7218	219.0000
83.7413	216.0000
83.7607	214.0000
83.7802	198.0000
83.7996	235.0000
83.8191	225.0000
83.8386	223.0000
83.8580	216.0000
83.8775	214.0000
83.8969	255.0000
83.9164	198.0000
83.9358	214.0000
83.9553	210.0000
83.9748	223.0000
83.9942	231.0000
84.0137	223.0000
84.0331	236.0000
84.0526	205.0000
84.0720	198.0000
84.0915	217.0000
84.1110	172.0000
84.1304	215.0000
84.1499	220.0000
84.1693	188.0000
84.1888	227.0000
84.2082	199.0000
84.2277	205.0000
84.2472	207.0000
84.2666	240.0000
84.2861	203.0000
84.3055	240.0000
84.3250	196.0000
84.3444	197.0000
84.3639	187.0000
84.3834	201.0000
84.4028	201.0000
84.4223	202.0000
84.4417	215.0000
84.4612	244.0000
84.4806	216.0000
84.5001	219.0000
84.5196	200.0000
84.5390	217.0000
84.5585	198.0000
84.5779	225.0000
84.5974	218.0000
84.6168	208.0000
84.6363	207.0000
84.6558	209.0000
84.6752	207.0000
84.6947	218.0000
84.7141	243.0000
84.7336	196.0000
84.7530	226.0000
84.7725	217.0000
84.7920	241.0000
84.8114	190.0000
84.8309	195.0000
84.8503	212.0000
84.8698	221.0000
84.8892	236.0000
84.9087	231.0000
84.9282	243.0000
84.9476	211.0000
84.9671	206.0000
84.9865	228.0000
85.0060	227.0000
85.0254	246.0000
85.0449	198.0000
85.0644	217.0000
85.0838	192.0000
85.1033	207.0000
85.1227	229.0000
85.1422	212.0000
85.1616	213.0000
85.1811	237.0000
85.2006	189.0000
85.2200	225.0000
85.2395	217.0000
85.2589	224.0000
85.2784	216.0000
85.2978	199.0000
85.3173	244.0000
85.3368	210.0000
85.3562	227.0000
85.3757	201.0000
85.3951	233.0000
85.4146	216.0000
85.4340	217.0000
85.4535	195.0000
85.4730	199.0000
85.4924	213.0000
85.5119	218.0000
85.5313	237.0000
85.5508	198.0000
85.5702	215.0000
85.5897	228.0000
85.6091	203.0000
85.6286	199.0000
85.6481	227.0000
85.6675	197.0000
85.6870	206.0000
85.7064	210.0000
85.7259	207.0000
85.7453	220.0000
85.7648	228.0000
85.7843	222.0000
85.8037	241.0000
85.8232	208.0000
85.8426	213.0000
85.8621	213.0000
85.8815	219.0000
85.9010	228.0000
85.9205	233.0000
85.9399	202.0000
85.9594	203.0000
85.9788	211.0000
85.9983	229.0000
86.0177	255.0000
86.0372	220.0000
86.0567	219.0000
86.0761	233.0000
86.0956	223.0000
86.1150	181.0000
86.1345	229.0000
86.1539	239.0000
86.1734	208.0000
86.1929	211.0000
86.2123	242.0000
86.2318	226.0000
86.2512	205.0000
86.2707	214.0000
86.2901	222.0000
86.3096	211.0000
86.3291	231.0000
86.3485	242.0000
86.3680	219.0000
86.3874	235.0000
86.4069	241.0000
86.4263	220.0000
86.4458	198.0000
86.4653	217.0000
86.4847	226.0000
86.5042	213.0000
86.5236	238.0000
86.5431	214.0000
86.5625	215.0000
86.5820	218.0000
86.6015	211.0000
86.6209	198.0000
86.6404	182.0000
86.6598	226.0000
86.6793	211.0000
86.6987	216.0000
86.7182	200.0000
86.7377	212.0000
86.7571	241.0000
86.7766	191.0000
86.7960	238.0000
86.8155	239.0000
86.8349	210.0000
86.8544	208.0000
86.8739	218.0000
86.8933	230.0000
86.9128	212.0000
86.9322	210.0000
86.9517	203.0000
86.9711	190.0000
86.9906	217.0000
87.0101	207.0000
87.0295	223.0000
87.0490	196.0000
87.0684	228.0000
87.0879	211.0000
87.1073	224.0000
87.1268	202.0000
87.1463	234.0000
87.1657	222.0000
87.1852	208.0000
87.2046	227.0000
87.2241	229.0000
87.2435	208.0000
87.2630	211.0000
87.2825	204.0000
87.3019	221.0000
87.3214	221.0000
87.3408	237.0000
87.3603	212.0000
87.3797	201.0000
87.3992	223.0000
87.4187	222.0000
87.4381	234.0000
87.4576	205.0000
87.4770	220.0000
87.4965	217.0000
87.5159	238.0000
87.5354	204.0000
87.5549	208.0000
87.5743	225.0000
87.5938	211.0000
87.6132	214.0000
87.6327	237.0000
87.6521	221.0000
87.6716	187.0000
87.6911	216.0000
87.7105	214.0000
87.7300	215.0000
87.7494	234.0000
87.7689	213.0000
87.7883	206.0000
87.8078	212.0000
87.8273	214.0000
87.8467	240.0000
87.8662	233.0000
87.8856	211.0000
87.9051	194.0000
87.9245	210.0000
87.9440	209.0000
87.9635	249.0000
87.9829	226.0000
88.0024	213.0000
88.0218	214.0000
88.0413	207.0000
88.0607	221.0000
88.0802	211.0000
88.0997	258.0000
88.1191	222.0000
88.1386	221.0000
88.1580	230.0000
88.1775	228.0000
88.1969	206.0000
88.2164	231.0000
88.2359	218.0000
88.2553	245.0000
88.2748	217.0000
88.2942	233.0000
88.3137	217.0000
88.3331	211.0000
88.3526	210.0000
88.3720	229.0000
88.3915	202.0000
88.4110	224.0000
88.4304	226.0000
88.4499	230.0000
88.4693	206.0000
88.4888	197.0000
88.5082	239.0000
88.5277	214.0000
88.5472	234.0000
88.5666	218.0000
88.5861	239.0000
88.6055	242.0000
88.6250	214.0000
88.6444	224.0000
88.6639	206.0000
88.6834	223.0000
88.7028	208.0000
88.7223	211.0000
88.7417	255.0000
88.7612	218.0000
88.7806	239.0000
88.8001	192.0000
88.8196	242.0000
88.8390	228.0000
88.8585	225.0000
88.8779	257.0000
88.8974	206.0000
88.9168	218.0000
88.9363	222.0000
88.9558	192.0000
88.9752	229.0000
88.9947	215.0000
89.0141	218.0000
89.0336	208.0000
89.0530	222.0000
89.0725	233.0000
89.0920	229.0000
89.1114	211.0000
89.1309	218.0000
89.1503	203.0000
89.1698	242.0000
89.1892	192.0000
89.2087	237.0000
89.2282	233.0000
89.2476	201.0000
89.2671	224.0000
89.2865	226.0000
89.3060	216.0000
89.3254	216.0000
89.3449	232.0000
89.3644	217.0000
89.3838	247.0000
89.4033	223.0000
89.4227	247.0000
89.4422	214.0000
89.4616	221.0000
89.4811	252.0000
89.5006	215.0000
89.5200	249.0000
89.5395	215.0000
89.5589	222.0000
89.5784	243.0000
89.5978	245.0000
89.6173	249.0000
89.6368	242.0000
89.6562	209.0000
89.6757	226.0000
89.6951	219.0000
89.7146	259.0000
89.7340	258.0000
89.7535	247.0000
89.7730	217.0000
89.7924	225.0000
89.8119	229.0000
89.8313	239.0000
89.8508	235.0000
89.8702	260.0000
89.8897	265.0000
89.9092	250.0000
89.9286	244.0000
89.9481	219.0000
89.9675	258.0000
89.9870	232.0000
90.0064	226.0000
90.0259	242.0000
90.0454	265.0000
90.0648	247.0000
90.0843	261.0000
90.1037	232.0000
90.1232	255.0000
90.1426	239.0000
90.1621	251.0000
90.1816	225.0000
90.2010	263.0000
90.2205	255.0000
90.2399	273.0000
90.2594	270.0000
90.2788	268.0000
90.2983	275.0000
90.3178	277.0000
90.3372	256.0000
90.3567	286.0000
90.3761	264.0000
90.3956	261.0000
90.4150	277.0000
90.4345	302.0000
90.4540	268.0000
90.4734	287.0000
90.4929	283.0000
90.5123	306.0000
90.5318	280.0000
90.5512	298.0000
90.5707	278.0000
90.5902	297.0000
90.6096	303.0000
90.6291	261.0000
90.6485	295.0000
90.6680	288.0000
90.6874	286.0000
90.7069	279.0000
90.7264	283.0000
90.7458	275.0000
90.7653	254.0000
90.7847	286.0000
90.8042	272.0000
90.8236	307.0000
90.8431	300.0000
90.8626	263.0000
90.8820	281.0000
90.9015	264.0000
90.9209	295.0000
90.9404	296.0000
90.9598	261.0000
90.9793	276.0000
90.9988	270.0000
91.0182	274.0000
91.0377	276.0000
91.0571	256.0000
91.0766	275.0000
91.0960	281.0000
91.1155	254.0000
91.1350	253.0000
91.1544	256.0000
91.1739	268.0000
91.1933	251.0000
91.2128	268.0000
91.2322	249.0000
91.2517	293.0000
91.2711	260.0000
91.2906	231.0000
91.3101	235.0000
91.3295	231.0000
91.3490	251.0000
91.3684	260.0000
91.3879	229.0000
91.4073	242.0000
91.4268	249.0000
91.4463	237.0000
91.4657	253.0000
91.4852	215.0000
91.5046	232.0000
91.5241	223.0000
91.5435	236.0000
91.5630	252.0000
91.5825	237.0000
91.6019	253.0000
91.6214	237.0000
91.6408	236.0000
91.6603	243.0000
91.6797	262.0000
91.6992	251.0000
91.7187	204.0000
91.7381	220.0000
91.7576	247.0000
91.7770	218.0000
91.7965	209.0000
91.8159	235.0000
91.8354	229.0000
91.8549	228.0000
91.8743	208.0000
91.8938	210.0000
91.9132	223.0000
91.9327	224.0000
91.9521	259.0000
91.9716	219.0000
91.9911	231.0000
92.0105	229.0000
92.0300	231.0000
92.0494	212.0000
92.0689	204.0000
92.0883	232.0000
92.1078	224.0000
92.1273	217.0000
92.1467	214.0000
92.1662	214.0000
92.1856	206.0000
92.2051	198.0000
92.2245	259.0000
92.2440	224.0000
92.2635	231.0000
92.2829	234.0000
92.3024	244.0000
92.3218	199.0000
92.3413	189.0000
92.3607	197.0000
92.3802	228.0000
92.3997	219.0000
92.4191	207.0000
92.4386	247.0000
92.4580	249.0000
92.4775	238.0000
92.4969	220.0000
92.5164	232.0000
92.5359	228.0000
92.5553	213.0000
92.5748	214.0000
92.5942	219.0000
92.6137	243.0000
92.6331	237.0000
92.6526	253.0000
92.6721	217.0000
92.6915	216.0000
92.7110	206.0000
92.7304	221.0000
92.7499	224.0000
92.7693	199.0000
92.7888	232.0000
92.8083	214.0000
92.8277	245.0000
92.8472	200.0000
92.8666	219.0000
92.8861	248.0000
92.9055	217.0000
92.9250	228.0000
92.9445	222.0000
92.9639	220.0000
92.9834	211.0000
93.0028	221.0000
93.0223	233.0000
93.0417	246.0000
93.0612	221.0000
93.0807	242.0000
93.1001	240.0000
93.1196	209.0000
93.1390	207.0000
93.1585	244.0000
93.1779	253.0000
93.1974	220.0000
93.2169	221.0000
93.2363	232.0000
93.2558	222.0000
93.2752	204.0000
93.2947	232.0000
93.3141	230.0000
93.3336	210.0000
93.3531	203.0000
93.3725	227.0000
93.3920	228.0000
93.4114	219.0000
93.4309	212.0000
93.4503	228.0000
93.4698	240.0000
93.4893	211.0000
93.5087	229.0000
93.5282	250.0000
93.5476	233.0000
93.5671	241.0000
93.5865	250.0000
93.6060	256.0000
93.6255	234.0000
93.6449	224.0000
93.6644	249.0000
93.6838	216.0000
93.7033	212.0000
93.7227	215.0000
93.7422	232.0000
93.7617	216.0000
93.7811	224.0000
93.8006	213.0000
93.8200	234.0000
93.8395	245.0000
93.8589	232.0000
93.8784	222.0000
93.8979	211.0000
93.9173	243.0000
93.9368	220.0000
93.9562	223.0000
93.9757	249.0000
93.9951	242.0000
94.0146	223.0000
94.0340	243.0000
94.0535	231.0000
94.0730	239.0000
94.0924	215.0000
94.1119	205.0000
94.1313	215.0000
94.1508	239.0000
94.1702	221.0000
94.1897	237.0000
94.2092	241.0000
94.2286	229.0000
94.2481	245.0000
94.2675	234.0000
94.2870	238.0000
94.3064	242.0000
94.3259	216.0000
94.3454	232.0000
94.3648	231.0000
94.3843	248.0000
94.4037	247.0000
94.4232	250.0000
94.4426	256.0000
94.4621	248.0000
94.4816	261.0000
94.5010	229.0000
94.5205	223.0000
94.5399	212.0000
94.5594	243.0000
94.5788	226.0000
94.5983	233.0000
94.6178	227.0000
94.6372	222.0000
94.6567	199.0000
94.6761	212.0000
94.6956	222.0000
94.7150	226.0000
94.7345	259.0000
94.7540	229.0000
94.7734	250.0000
94.7929	226.0000
94.8123	226.0000
94.8318	170.0000
94.8512	225.0000
94.8707	208.0000
94.8902	236.0000
94.9096	236.0000
94.9291	233.0000
94.9485	204.0000
94.9680	236.0000
94.9874	231.0000
95.0069	216.0000
95.0264	240.0000
95.0458	216.0000
95.0653	215.0000
95.0847	201.0000
95.1042	215.0000
95.1236	219.0000
95.1431	229.0000
95.1626	232.0000
95.1820	238.0000
95.2015	244.0000
95.2209	227.0000
95.2404	235.0000
95.2598	235.0000
95.2793	242.0000
95.2988	225.0000
95.3182	224.0000
95.3377	211.0000
95.3571	238.0000
95.3766	193.0000
95.3960	223.0000
95.4155	207.0000
95.4350	237.0000
95.4544	196.0000
95.4739	206.0000
95.4933	221.0000
95.5128	207.0000
95.5322	240.0000
95.5517	222.0000
95.5712	225.0000
95.5906	230.0000
95.6101	203.0000
95.6295	261.0000
95.6490	216.0000
95.6684	244.0000
95.6879	235.0000
95.7074	218.0000
95.7268	225.0000
95.7463	233.0000
95.7657	233.0000
95.7852	228.0000
95.8046	227.0000
95.8241	248.0000
95.8436	223.0000
95.8630	238.0000
95.8825	241.0000
95.9019	252.0000
95.9214	218.0000
95.9408	222.0000
95.9603	229.0000
95.9798	222.0000
95.9992	225.0000
96.0187	244.0000
96.0381	228.0000
96.0576	209.0000
96.0770	248.0000
96.0965	231.0000
96.1160	229.0000
96.1354	232.0000
96.1549	221.0000
96.1743	232.0000
96.1938	215.0000
96.2132	241.0000
96.2327	213.0000
96.2522	239.0000
96.2716	242.0000
96.2911	213.0000
96.3105	231.0000
96.3300	217.0000
96.3494	224.0000
96.3689	231.0000
96.3884	225.0000
96.4078	223.0000
96.4273	247.0000
96.4467	252.0000
96.4662	246.0000
96.4856	248.0000
96.5051	223.0000
96.5246	212.0000
96.5440	228.0000
96.5635	244.0000
96.5829	234.0000
96.6024	236.0000
96.6218	217.0000
96.6413	245.0000
96.6608	209.0000
96.6802	221.0000
96.6997	237.0000
96.7191	254.0000
96.7386	210.0000
96.7580	211.0000
96.7775	211.0000
96.7969	237.0000
96.8164	227.0000
96.8359	232.0000
96.8553	211.0000
96.8748	226.0000
96.8942	212.0000
96.9137	227.0000
96.9331	228.0000
96.9526	211.0000
96.9721	224.0000
96.9915	220.0000
97.0110	208.0000
97.0304	212.0000
97.0499	235.0000
97.0693	229.0000
97.0888	209.0000
97.1083	250.0000
97.1277	239.0000
97.1472	224.0000
97.1666	230.0000
97.1861	232.0000
97.2055	225.0000
97.2250	243.0000
97.2445	233.0000
97.2639	224.0000
97.2834	208.0000
97.3028	211.0000
97.3223	226.0000
97.3417	197.0000
97.3612	245.0000
97.3807	251.0000
97.4001	250.0000
97.4196	234.0000
97.4390	240.0000
97.4585	247.0000
97.4779	229.0000
97.4974	202.0000
97.5169	219.0000
97.5363	243.0000
97.5558	219.0000
97.5752	276.0000
97.5947	217.0000
97.6141	220.0000
97.6336	200.0000
97.6531	229.0000
97.6725	235.0000
97.6920	218.0000
97.7114	224.0000
97.7309	245.0000
97.7503	239.0000
97.7698	220.0000
97.7893	231.0000
97.8087	235.0000
97.8282	192.0000
97.8476	248.0000
97.8671	222.0000
97.8865	232.0000
97.9060	208.0000
97.9255	231.0000
97.9449	256.0000
97.9644	210.0000
97.9838	227.0000
98.0033	235.0000
98.0227	234.0000
98.0422	198.0000
98.0617	259.0000
98.0811	269.0000
98.1006	248.0000
98.1200	212.0000
98.1395	236.0000
98.1589	247.0000
98.1784	243.0000
98.1979	220.0000
98.2173	218.0000
98.2368	238.0000
98.2562	224.0000
98.2757	205.0000
98.2951	218.0000
98.3146	226.0000
98.3341	201.0000
98.3535	231.0000
98.3730	239.0000
98.3924	241.0000
98.4119	218.0000
98.4313	229.0000
98.4508	218.0000
98.4703	207.0000
98.4897	237.0000
98.5092	228.0000
98.5286	247.0000
98.5481	239.0000
98.5675	214.0000
98.5870	237.0000
98.6065	241.0000
98.6259	222.0000
98.6454	213.0000
98.6648	227.0000
98.6843	219.0000
98.7037	243.0000
98.7232	206.0000
98.7427	218.0000
98.7621	221.0000
98.7816	196.0000
98.8010	225.0000
98.8205	219.0000
98.8399	201.0000
98.8594	216.0000
98.8789	201.0000
98.8983	233.0000
98.9178	244.0000
98.9372	224.0000
98.9567	215.0000
98.9761	226.0000
98.9956	193.0000
99.0151	225.0000
99.0345	213.0000
99.0540	252.0000
99.0734	225.0000
99.0929	207.0000
99.1123	227.0000
99.1318	250.0000
99.1513	235.0000
99.1707	212.0000
99.1902	210.0000
99.2096	230.0000
99.2291	216.0000
99.2485	214.0000
99.2680	204.0000
99.2875	212.0000
99.3069	245.0000
99.3264	215.0000
99.3458	250.0000
99.3653	212.0000
99.3847	233.0000
99.4042	225.0000
99.4237	243.0000
99.4431	219.0000
99.4626	230.0000
99.4820	221.0000
99.5015	231.0000
99.5209	226.0000
99.5404	224.0000
99.5598	209.0000
99.5793	217.0000
99.5988	231.0000
99.6182	244.0000
99.6377	242.0000
99.6571	224.0000
99.6766	208.0000
99.6960	224.0000
99.7155	227.0000
99.7350	241.0000
99.7544	212.0000
99.7739	229.0000
99.7933	188.0000
99.8128	230.0000
99.8322	219.0000
99.8517	235.0000
99.8712	255.0000
99.8906	233.0000
99.9101	226.0000
99.9295	216.0000
99.9490	247.0000
99.9684	223.0000
99.9879	216.0000
100.0074	213.0000
