30.0009	112.0000
30.0204	100.0000
30.0398	116.0000
30.0593	129.0000
30.0787	99.0000
30.0982	98.0000
30.1177	121.0000
30.1371	101.0000
30.1566	95.0000
30.1760	114.0000
30.1955	103.0000
30.2149	105.0000
30.2344	110.0000
30.2539	119.0000
30.2733	101.0000
30.2928	129.0000
30.3122	121.0000
30.3317	97.0000
30.3511	109.0000
30.3706	95.0000
30.3901	116.0000
30.4095	119.0000
30.4290	99.0000
30.4484	96.0000
30.4679	115.0000
30.4873	104.0000
30.5068	112.0000
30.5263	104.0000
30.5457	121.0000
30.5652	94.0000
30.5846	104.0000
30.6041	84.0000
30.6235	144.0000
30.6430	99.0000
30.6625	107.0000
30.6819	111.0000
30.7014	100.0000
30.7208	96.0000
30.7403	93.0000
30.7597	109.0000
30.7792	101.0000
30.7987	124.0000
30.8181	97.0000
30.8376	105.0000
30.8570	114.0000
30.8765	110.0000
30.8959	98.0000
30.9154	109.0000
30.9349	105.0000
30.9543	111.0000
30.9738	113.0000
30.9932	107.0000
31.0127	86.0000
31.0321	88.0000
31.0516	118.0000
31.0711	111.0000
31.0905	112.0000
31.1100	96.0000
31.1294	102.0000
31.1489	88.0000
31.1683	103.0000
31.1878	115.0000
31.2073	105.0000
31.2267	116.0000
31.2462	93.0000
31.2656	103.0000
31.2851	101.0000
31.3045	97.0000
31.3240	107.0000
31.3435	108.0000
31.3629	127.0000
31.3824	105.0000
31.4018	110.0000
31.4213	123.0000
31.4407	121.0000
31.4602	132.0000
31.4797	111.0000
31.4991	107.0000
31.5186	99.0000
31.5380	99.0000
31.5575	99.0000
31.5769	89.0000
31.5964	102.0000
31.6159	116.0000
31.6353	101.0000
31.6548	90.0000
31.6742	95.0000
31.6937	108.0000
31.7131	113.0000
31.7326	111.0000
31.7521	92.0000
31.7715	100.0000
31.7910	103.0000
31.8104	125.0000
31.8299	113.0000
31.8493	113.0000
31.8688	104.0000
31.8883	105.0000
31.9077	112.0000
31.9272	90.0000
31.9466	110.0000
31.9661	103.0000
31.9855	106.0000
32.0050	111.0000
32.0245	100.0000
32.0439	102.0000
32.0634	121.0000
32.0828	92.0000
32.1023	114.0000
32.1217	100.0000
32.1412	109.0000
32.1607	108.0000
32.1801	100.0000
32.1996	113.0000
32.2190	108.0000
32.2385	110.0000
32.2579	105.0000
32.2774	101.0000
32.2969	106.0000
32.3163	114.0000
32.3358	104.0000
32.3552	106.0000
32.3747	108.0000
32.3941	112.0000
32.4136	120.0000
32.4331	113.0000
32.4525	112.0000
32.4720	89.0000
32.4914	113.0000
32.5109	112.0000
32.5303	119.0000
32.5498	106.0000
32.5692	102.0000
32.5887	123.0000
32.6082	113.0000
32.6276	87.0000
32.6471	125.0000
32.6665	110.0000
32.6860	106.0000
32.7054	129.0000
32.7249	106.0000
32.7444	107.0000
32.7638	109.0000
32.7833	117.0000
32.8027	113.0000
32.8222	127.0000
32.8416	112.0000
32.8611	114.0000
32.8806	121.0000
32.9000	95.0000
32.9195	121.0000
32.9389	110.0000
32.9584	108.0000
32.9778	93.0000
32.9973	103.0000
33.0168	95.0000
33.0362	102.0000
33.0557	103.0000
33.0751	133.0000
33.0946	108.0000
33.1140	106.0000
33.1335	100.0000
33.1530	95.0000
33.1724	122.0000
33.1919	93.0000
33.2113	110.0000
33.2308	102.0000
33.2502	98.0000
33.2697	104.0000
33.2892	115.0000
33.3086	86.0000
33.3281	91.0000
33.3475	113.0000
33.3670	122.0000
33.3864	100.0000
33.4059	104.0000
33.4254	103.0000
33.4448	102.0000
33.4643	113.0000
33.4837	94.0000
33.5032	105.0000
33.5226	100.0000
33.5421	100.0000
33.5616	117.0000
33.5810	128.0000
33.6005	114.0000
33.6199	101.0000
33.6394	102.0000
33.6588	105.0000
33.6783	101.0000
33.6978	119.0000
33.7172	109.0000
33.7367	104.0000
33.7561	106.0000
33.7756	97.0000
33.7950	103.0000
33.8145	100.0000
33.8340	105.0000
33.8534	126.0000
33.8729	111.0000
33.8923	111.0000
33.9118	128.0000
33.9312	100.0000
33.9507	116.0000
33.9702	107.0000
33.9896	118.0000
34.0091	123.0000
34.0285	97.0000
34.0480	128.0000
34.0674	120.0000
34.0869	107.0000
34.1064	107.0000
34.1258	124.0000
34.1453	139.0000
34.1647	108.0000
34.1842	99.0000
34.2036	91.0000
34.2231	111.0000
34.2426	113.0000
34.2620	101.0000
34.2815	110.0000
34.3009	109.0000
34.3204	94.0000
34.3398	133.0000
34.3593	128.0000
34.3788	116.0000
34.3982	111.0000
34.4177	136.0000
34.4371	118.0000
34.4566	120.0000
34.4760	107.0000
34.4955	114.0000
34.5150	131.0000
34.5344	113.0000
34.5539	106.0000
34.5733	103.0000
34.5928	142.0000
34.6122	117.0000
34.6317	102.0000
34.6512	117.0000
34.6706	91.0000
34.6901	117.0000
34.7095	118.0000
34.7290	111.0000
34.7484	111.0000
34.7679	102.0000
34.7874	113.0000
34.8068	109.0000
34.8263	122.0000
34.8457	97.0000
34.8652	121.0000
34.8846	117.0000
34.9041	117.0000
34.9236	118.0000
34.9430	114.0000
34.9625	113.0000
34.9819	104.0000
35.0014	126.0000
35.0208	113.0000
35.0403	138.0000
35.0598	119.0000
35.0792	113.0000
35.0987	104.0000
35.1181	120.0000
35.1376	104.0000
35.1570	101.0000
35.1765	108.0000
35.1960	114.0000
35.2154	112.0000
35.2349	124.0000
35.2543	112.0000
35.2738	131.0000
35.2932	105.0000
35.3127	92.0000
35.3322	124.0000
35.3516	121.0000
35.3711	112.0000
35.3905	116.0000
35.4100	119.0000
35.4294	113.0000
35.4489	108.0000
35.4683	126.0000
35.4878	107.0000
35.5073	133.0000
35.5267	125.0000
35.5462	112.0000
35.5656	96.0000
35.5851	104.0000
35.6045	121.0000
35.6240	114.0000
35.6435	127.0000
35.6629	144.0000
35.6824	129.0000
35.7018	110.0000
35.7213	119.0000
35.7407	122.0000
35.7602	102.0000
35.7797	117.0000
35.7991	113.0000
35.8186	107.0000
35.8380	111.0000
35.8575	130.0000
35.8769	131.0000
35.8964	114.0000
35.9159	132.0000
35.9353	116.0000
35.9548	132.0000
35.9742	111.0000
35.9937	132.0000
36.0131	130.0000
36.0326	129.0000
36.0521	114.0000
36.0715	130.0000
36.0910	116.0000
36.1104	120.0000
36.1299	110.0000
36.1493	119.0000
36.1688	120.0000
36.1883	115.0000
36.2077	126.0000
36.2272	116.0000
36.2466	117.0000
36.2661	112.0000
36.2855	106.0000
36.3050	122.0000
36.3245	114.0000
36.3439	130.0000
36.3634	120.0000
36.3828	116.0000
36.4023	100.0000
36.4217	105.0000
36.4412	124.0000
36.4607	134.0000
36.4801	122.0000
36.4996	123.0000
36.5190	121.0000
36.5385	114.0000
36.5579	129.0000
36.5774	126.0000
36.5969	120.0000
36.6163	119.0000
36.6358	130.0000
36.6552	134.0000
36.6747	117.0000
36.6941	102.0000
36.7136	120.0000
36.7331	109.0000
36.7525	124.0000
36.7720	121.0000
36.7914	114.0000
36.8109	143.0000
36.8303	135.0000
36.8498	125.0000
36.8693	127.0000
36.8887	137.0000
36.9082	125.0000
36.9276	93.0000
36.9471	125.0000
36.9665	117.0000
36.9860	99.0000
37.0055	107.0000
37.0249	101.0000
37.0444	135.0000
37.0638	95.0000
37.0833	136.0000
37.1027	125.0000
37.1222	125.0000
37.1417	122.0000
37.1611	146.0000
37.1806	127.0000
37.2000	108.0000
37.2195	112.0000
37.2389	105.0000
37.2584	111.0000
37.2779	126.0000
37.2973	132.0000
37.3168	119.0000
37.3362	106.0000
37.3557	131.0000
37.3751	103.0000
37.3946	130.0000
37.4141	103.0000
37.4335	126.0000
37.4530	112.0000
37.4724	117.0000
37.4919	111.0000
37.5113	135.0000
37.5308	122.0000
37.5503	105.0000
37.5697	142.0000
37.5892	118.0000
37.6086	103.0000
37.6281	134.0000
37.6475	122.0000
37.6670	123.0000
37.6865	119.0000
37.7059	115.0000
37.7254	132.0000
37.7448	109.0000
37.7643	106.0000
37.7837	136.0000
37.8032	119.0000
37.8227	125.0000
37.8421	112.0000
37.8616	128.0000
37.8810	107.0000
37.9005	134.0000
37.9199	132.0000
37.9394	116.0000
37.9589	143.0000
37.9783	125.0000
37.9978	121.0000
38.0172	134.0000
38.0367	127.0000
38.0561	121.0000
38.0756	114.0000
38.0951	142.0000
38.1145	116.0000
38.1340	126.0000
38.1534	108.0000
38.1729	125.0000
38.1923	113.0000
38.2118	141.0000
38.2312	104.0000
38.2507	136.0000
38.2702	122.0000
38.2896	97.0000
38.3091	118.0000
38.3285	115.0000
38.3480	130.0000
38.3674	124.0000
38.3869	131.0000
38.4064	122.0000
38.4258	100.0000
38.4453	136.0000
38.4647	116.0000
38.4842	108.0000
38.5036	128.0000
38.5231	123.0000
38.5426	128.0000
38.5620	135.0000
38.5815	124.0000
38.6009	105.0000
38.6204	124.0000
38.6398	116.0000
38.6593	115.0000
38.6788	136.0000
38.6982	131.0000
38.7177	138.0000
38.7371	152.0000
38.7566	103.0000
38.7760	107.0000
38.7955	128.0000
38.8150	126.0000
38.8344	123.0000
38.8539	109.0000
38.8733	119.0000
38.8928	144.0000
38.9122	116.0000
38.9317	121.0000
38.9512	133.0000
38.9706	127.0000
38.9901	135.0000
39.0095	129.0000
39.0290	143.0000
39.0484	130.0000
39.0679	122.0000
39.0874	111.0000
39.1068	118.0000
39.1263	109.0000
39.1457	125.0000
39.1652	117.0000
39.1846	153.0000
39.2041	106.0000
39.2236	118.0000
39.2430	119.0000
39.2625	120.0000
39.2819	133.0000
39.3014	115.0000
39.3208	136.0000
39.3403	111.0000
39.3598	122.0000
39.3792	115.0000
39.3987	120.0000
39.4181	134.0000
39.4376	136.0000
39.4570	133.0000
39.4765	110.0000
39.4960	126.0000
39.5154	115.0000
39.5349	120.0000
39.5543	121.0000
39.5738	118.0000
39.5932	112.0000
39.6127	133.0000
39.6322	124.0000
39.6516	127.0000
39.6711	127.0000
39.6905	130.0000
39.7100	130.0000
39.7294	122.0000
39.7489	129.0000
39.7684	115.0000
39.7878	121.0000
39.8073	123.0000
39.8267	143.0000
39.8462	146.0000
39.8656	144.0000
39.8851	124.0000
39.9046	124.0000
39.9240	123.0000
39.9435	137.0000
39.9629	112.0000
39.9824	155.0000
40.0018	138.0000
40.0213	127.0000
40.0408	115.0000
40.0602	123.0000
40.0797	114.0000
40.0991	128.0000
40.1186	117.0000
40.1380	123.0000
40.1575	128.0000
40.1770	133.0000
40.1964	125.0000
40.2159	123.0000
40.2353	114.0000
40.2548	116.0000
40.2742	126.0000
40.2937	123.0000
40.3132	121.0000
40.3326	119.0000
40.3521	116.0000
40.3715	124.0000
40.3910	118.0000
40.4104	119.0000
40.4299	140.0000
40.4494	108.0000
40.4688	116.0000
40.4883	128.0000
40.5077	137.0000
40.5272	127.0000
40.5466	156.0000
40.5661	119.0000
40.5856	131.0000
40.6050	117.0000
40.6245	135.0000
40.6439	115.0000
40.6634	113.0000
40.6828	102.0000
40.7023	124.0000
40.7218	123.0000
40.7412	136.0000
40.7607	103.0000
40.7801	118.0000
40.7996	117.0000
40.8190	128.0000
40.8385	136.0000
40.8580	125.0000
40.8774	115.0000
40.8969	125.0000
40.9163	130.0000
40.9358	123.0000
40.9552	134.0000
40.9747	124.0000
40.9941	129.0000
41.0136	91.0000
41.0331	117.0000
41.0525	128.0000
41.0720	122.0000
41.0914	123.0000
41.1109	120.0000
41.1303	133.0000
41.1498	125.0000
41.1693	121.0000
41.1887	137.0000
41.2082	115.0000
41.2276	123.0000
41.2471	128.0000
41.2665	117.0000
41.2860	124.0000
41.3055	127.0000
41.3249	126.0000
41.3444	116.0000
41.3638	134.0000
41.3833	124.0000
41.4027	155.0000
41.4222	128.0000
41.4417	141.0000
41.4611	115.0000
41.4806	123.0000
41.5000	132.0000
41.5195	105.0000
41.5389	132.0000
41.5584	140.0000
41.5779	121.0000
41.5973	128.0000
41.6168	113.0000
41.6362	129.0000
41.6557	120.0000
41.6751	146.0000
41.6946	134.0000
41.7141	138.0000
41.7335	131.0000
41.7530	117.0000
41.7724	125.0000
41.7919	139.0000
41.8113	130.0000
41.8308	118.0000
41.8503	139.0000
41.8697	109.0000
41.8892	134.0000
41.9086	117.0000
41.9281	128.0000
41.9475	143.0000
41.9670	125.0000
41.9865	132.0000
42.0059	133.0000
42.0254	135.0000
42.0448	140.0000
42.0643	125.0000
42.0837	130.0000
42.1032	138.0000
42.1227	113.0000
42.1421	136.0000
42.1616	133.0000
42.1810	112.0000
42.2005	135.0000
42.2199	105.0000
42.2394	143.0000
42.2589	148.0000
42.2783	129.0000
42.2978	131.0000
42.3172	127.0000
42.3367	131.0000
42.3561	110.0000
42.3756	109.0000
42.3951	127.0000
42.4145	122.0000
42.4340	132.0000
42.4534	143.0000
42.4729	96.0000
42.4923	123.0000
42.5118	148.0000
42.5313	150.0000
42.5507	128.0000
42.5702	130.0000
42.5896	115.0000
42.6091	124.0000
42.6285	125.0000
42.6480	160.0000
42.6675	138.0000
42.6869	154.0000
42.7064	163.0000
42.7258	135.0000
42.7453	142.0000
42.7647	141.0000
42.7842	120.0000
42.8037	136.0000
42.8231	145.0000
42.8426	138.0000
42.8620	124.0000
42.8815	130.0000
42.9009	123.0000
42.9204	155.0000
42.9399	147.0000
42.9593	128.0000
42.9788	129.0000
42.9982	167.0000
43.0177	130.0000
43.0371	135.0000
43.0566	151.0000
43.0761	145.0000
43.0955	134.0000
43.1150	150.0000
43.1344	165.0000
43.1539	149.0000
43.1733	155.0000
43.1928	139.0000
43.2123	141.0000
43.2317	127.0000
43.2512	157.0000
43.2706	141.0000
43.2901	158.0000
43.3095	146.0000
43.3290	173.0000
43.3485	168.0000
43.3679	157.0000
43.3874	178.0000
43.4068	165.0000
43.4263	157.0000
43.4457	169.0000
43.4652	170.0000
43.4847	183.0000
43.5041	220.0000
43.5236	193.0000
43.5430	202.0000
43.5625	225.0000
43.5819	214.0000
43.6014	212.0000
43.6209	223.0000
43.6403	241.0000
43.6598	293.0000
43.6792	268.0000
43.6987	283.0000
43.7181	325.0000
43.7376	336.0000
43.7570	365.0000
43.7765	403.0000
43.7960	376.0000
43.8154	419.0000
43.8349	475.0000
43.8543	519.0000
43.8738	559.0000
43.8932	598.0000
43.9127	613.0000
43.9322	656.0000
43.9516	626.0000
43.9711	669.0000
43.9905	661.0000
44.0100	642.0000
44.0294	630.0000
44.0489	635.0000
44.0684	594.0000
44.0878	570.0000
44.1073	556.0000
44.1267	517.0000
44.1462	485.0000
44.1656	478.0000
44.1851	391.0000
44.2046	426.0000
44.2240	358.0000
44.2435	352.0000
44.2629	329.0000
44.2824	307.0000
44.3018	294.0000
44.3213	258.0000
44.3408	243.0000
44.3602	256.0000
44.3797	243.0000
44.3991	223.0000
44.4186	197.0000
44.4380	207.0000
44.4575	222.0000
44.4770	187.0000
44.4964	167.0000
44.5159	162.0000
44.5353	206.0000
44.5548	173.0000
44.5742	182.0000
44.5937	177.0000
44.6132	179.0000
44.6326	160.0000
44.6521	157.0000
44.6715	150.0000
44.6910	151.0000
44.7104	171.0000
44.7299	159.0000
44.7494	157.0000
44.7688	151.0000
44.7883	162.0000
44.8077	146.0000
44.8272	148.0000
44.8466	134.0000
44.8661	140.0000
44.8856	166.0000
44.9050	155.0000
44.9245	141.0000
44.9439	151.0000
44.9634	149.0000
44.9828	126.0000
45.0023	145.0000
45.0218	139.0000
45.0412	127.0000
45.0607	140.0000
45.0801	120.0000
45.0996	136.0000
45.1190	127.0000
45.1385	138.0000
45.1580	134.0000
45.1774	132.0000
45.1969	141.0000
45.2163	127.0000
45.2358	141.0000
45.2552	157.0000
45.2747	135.0000
45.2942	124.0000
45.3136	126.0000
45.3331	136.0000
45.3525	133.0000
45.3720	125.0000
45.3914	132.0000
45.4109	129.0000
45.4304	141.0000
45.4498	144.0000
45.4693	120.0000
45.4887	163.0000
45.5082	141.0000
45.5276	128.0000
45.5471	126.0000
45.5666	138.0000
45.5860	129.0000
45.6055	137.0000
45.6249	139.0000
45.6444	132.0000
45.6638	139.0000
45.6833	123.0000
45.7028	134.0000
45.7222	107.0000
45.7417	137.0000
45.7611	126.0000
45.7806	122.0000
45.8000	129.0000
45.8195	138.0000
45.8390	135.0000
45.8584	142.0000
45.8779	132.0000
45.8973	126.0000
45.9168	111.0000
45.9362	123.0000
45.9557	123.0000
45.9752	122.0000
45.9946	143.0000
46.0141	127.0000
46.0335	137.0000
46.0530	128.0000
46.0724	137.0000
46.0919	143.0000
46.1114	125.0000
46.1308	114.0000
46.1503	145.0000
46.1697	146.0000
46.1892	151.0000
46.2086	122.0000
46.2281	135.0000
46.2476	126.0000
46.2670	148.0000
46.2865	135.0000
46.3059	127.0000
46.3254	131.0000
46.3448	124.0000
46.3643	107.0000
46.3838	142.0000
46.4032	126.0000
46.4227	115.0000
46.4421	121.0000
46.4616	146.0000
46.4810	129.0000
46.5005	130.0000
46.5199	120.0000
46.5394	117.0000
46.5589	126.0000
46.5783	134.0000
46.5978	101.0000
46.6172	148.0000
46.6367	119.0000
46.6561	139.0000
46.6756	138.0000
46.6951	117.0000
46.7145	133.0000
46.7340	125.0000
46.7534	115.0000
46.7729	130.0000
46.7923	134.0000
46.8118	125.0000
46.8313	135.0000
46.8507	140.0000
46.8702	118.0000
46.8896	120.0000
46.9091	135.0000
46.9285	133.0000
46.9480	100.0000
46.9675	114.0000
46.9869	124.0000
47.0064	116.0000
47.0258	123.0000
47.0453	127.0000
47.0647	118.0000
47.0842	116.0000
47.1037	133.0000
47.1231	128.0000
47.1426	132.0000
47.1620	104.0000
47.1815	142.0000
47.2009	127.0000
47.2204	116.0000
47.2399	134.0000
47.2593	129.0000
47.2788	115.0000
47.2982	122.0000
47.3177	111.0000
47.3371	132.0000
47.3566	126.0000
47.3761	129.0000
47.3955	142.0000
47.4150	116.0000
47.4344	122.0000
47.4539	129.0000
47.4733	122.0000
47.4928	106.0000
47.5123	141.0000
47.5317	135.0000
47.5512	126.0000
47.5706	117.0000
47.5901	132.0000
47.6095	133.0000
47.6290	129.0000
47.6485	124.0000
47.6679	124.0000
47.6874	149.0000
47.7068	144.0000
47.7263	120.0000
47.7457	126.0000
47.7652	125.0000
47.7847	123.0000
47.8041	141.0000
47.8236	133.0000
47.8430	124.0000
47.8625	120.0000
47.8819	127.0000
47.9014	122.0000
47.9209	138.0000
47.9403	119.0000
47.9598	114.0000
47.9792	120.0000
47.9987	135.0000
48.0181	110.0000
48.0376	132.0000
48.0571	130.0000
48.0765	126.0000
48.0960	97.0000
48.1154	103.0000
48.1349	122.0000
48.1543	107.0000
48.1738	127.0000
48.1933	123.0000
48.2127	129.0000
48.2322	108.0000
48.2516	126.0000
48.2711	127.0000
48.2905	143.0000
48.3100	148.0000
48.3295	113.0000
48.3489	125.0000
48.3684	147.0000
48.3878	124.0000
48.4073	133.0000
48.4267	123.0000
48.4462	123.0000
48.4657	117.0000
48.4851	136.0000
48.5046	116.0000
48.5240	137.0000
48.5435	119.0000
48.5629	132.0000
48.5824	141.0000
48.6019	139.0000
48.6213	131.0000
48.6408	141.0000
48.6602	118.0000
48.6797	129.0000
48.6991	115.0000
48.7186	116.0000
48.7381	131.0000
48.7575	124.0000
48.7770	133.0000
48.7964	120.0000
48.8159	140.0000
48.8353	114.0000
48.8548	146.0000
48.8743	125.0000
48.8937	123.0000
48.9132	124.0000
48.9326	104.0000
48.9521	123.0000
48.9715	148.0000
48.9910	123.0000
49.0105	154.0000
49.0299	145.0000
49.0494	128.0000
49.0688	139.0000
49.0883	135.0000
49.1077	127.0000
49.1272	131.0000
49.1467	145.0000
49.1661	131.0000
49.1856	130.0000
49.2050	114.0000
49.2245	122.0000
49.2439	129.0000
49.2634	107.0000
49.2829	116.0000
49.3023	128.0000
49.3218	116.0000
49.3412	127.0000
49.3607	145.0000
49.3801	136.0000
49.3996	139.0000
49.4190	122.0000
49.4385	130.0000
49.4580	142.0000
49.4774	130.0000
49.4969	130.0000
49.5163	140.0000
49.5358	143.0000
49.5552	139.0000
49.5747	127.0000
49.5942	131.0000
49.6136	121.0000
49.6331	142.0000
49.6525	135.0000
49.6720	124.0000
49.6914	122.0000
49.7109	119.0000
49.7304	154.0000
49.7498	134.0000
49.7693	139.0000
49.7887	141.0000
49.8082	140.0000
49.8276	138.0000
49.8471	139.0000
49.8666	161.0000
49.8860	127.0000
49.9055	156.0000
49.9249	132.0000
49.9444	140.0000
49.9638	140.0000
49.9833	130.0000
50.0028	121.0000
50.0222	117.0000
50.0417	127.0000
50.0611	151.0000
50.0806	136.0000
50.1000	145.0000
50.1195	167.0000
50.1390	139.0000
50.1584	176.0000
50.1779	156.0000
50.1973	138.0000
50.2168	162.0000
50.2362	149.0000
50.2557	134.0000
50.2752	151.0000
50.2946	137.0000
50.3141	153.0000
50.3335	174.0000
50.3530	162.0000
50.3724	163.0000
50.3919	164.0000
50.4114	155.0000
50.4308	141.0000
50.4503	166.0000
50.4697	170.0000
50.4892	165.0000
50.5086	191.0000
50.5281	172.0000
50.5476	190.0000
50.5670	192.0000
50.5865	180.0000
50.6059	179.0000
50.6254	186.0000
50.6448	226.0000
50.6643	223.0000
50.6838	195.0000
50.7032	214.0000
50.7227	241.0000
50.7421	251.0000
50.7616	216.0000
50.7810	244.0000
50.8005	282.0000
50.8200	275.0000
50.8394	310.0000
50.8589	289.0000
50.8783	345.0000
50.8978	336.0000
50.9172	346.0000
50.9367	364.0000
50.9562	427.0000
50.9756	407.0000
50.9951	422.0000
51.0145	425.0000
51.0340	409.0000
51.0534	404.0000
51.0729	426.0000
51.0924	423.0000
51.1118	406.0000
51.1313	355.0000
51.1507	342.0000
51.1702	370.0000
51.1896	363.0000
51.2091	305.0000
51.2286	308.0000
51.2480	285.0000
51.2675	264.0000
51.2869	315.0000
51.3064	239.0000
51.3258	233.0000
51.3453	227.0000
51.3648	233.0000
51.3842	206.0000
51.4037	214.0000
51.4231	203.0000
51.4426	202.0000
51.4620	189.0000
51.4815	183.0000
51.5010	195.0000
51.5204	175.0000
51.5399	168.0000
51.5593	171.0000
51.5788	171.0000
51.5982	146.0000
51.6177	138.0000
51.6372	174.0000
51.6566	140.0000
51.6761	145.0000
51.6955	157.0000
51.7150	159.0000
51.7344	148.0000
51.7539	150.0000
51.7734	142.0000
51.7928	150.0000
51.8123	153.0000
51.8317	116.0000
51.8512	143.0000
51.8706	134.0000
51.8901	141.0000
51.9096	132.0000
51.9290	136.0000
51.9485	142.0000
51.9679	155.0000
51.9874	112.0000
52.0068	144.0000
52.0263	136.0000
52.0458	127.0000
52.0652	114.0000
52.0847	151.0000
52.1041	124.0000
52.1236	131.0000
52.1430	134.0000
52.1625	138.0000
52.1819	155.0000
52.2014	143.0000
52.2209	138.0000
52.2403	151.0000
52.2598	144.0000
52.2792	134.0000
52.2987	128.0000
52.3181	117.0000
52.3376	137.0000
52.3571	128.0000
52.3765	117.0000
52.3960	112.0000
52.4154	137.0000
52.4349	126.0000
52.4543	128.0000
52.4738	126.0000
52.4933	119.0000
52.5127	136.0000
52.5322	132.0000
52.5516	121.0000
52.5711	125.0000
52.5905	130.0000
52.6100	128.0000
52.6295	118.0000
52.6489	133.0000
52.6684	137.0000
52.6878	141.0000
52.7073	119.0000
52.7267	128.0000
52.7462	127.0000
52.7657	129.0000
52.7851	123.0000
52.8046	138.0000
52.8240	122.0000
52.8435	119.0000
52.8629	121.0000
52.8824	130.0000
52.9019	106.0000
52.9213	129.0000
52.9408	104.0000
52.9602	106.0000
52.9797	141.0000
52.9991	117.0000
53.0186	140.0000
53.0381	123.0000
53.0575	91.0000
53.0770	135.0000
53.0964	131.0000
53.1159	119.0000
53.1353	139.0000
53.1548	114.0000
53.1743	126.0000
53.1937	123.0000
53.2132	147.0000
53.2326	105.0000
53.2521	125.0000
53.2715	125.0000
53.2910	137.0000
53.3105	126.0000
53.3299	102.0000
53.3494	126.0000
53.3688	111.0000
53.3883	133.0000
53.4077	143.0000
53.4272	108.0000
53.4467	152.0000
53.4661	126.0000
53.4856	132.0000
53.5050	116.0000
53.5245	123.0000
53.5439	126.0000
53.5634	131.0000
53.5829	116.0000
53.6023	123.0000
53.6218	118.0000
53.6412	134.0000
53.6607	108.0000
53.6801	121.0000
53.6996	139.0000
53.7191	134.0000
53.7385	120.0000
53.7580	117.0000
53.7774	135.0000
53.7969	125.0000
53.8163	124.0000
53.8358	126.0000
53.8553	123.0000
53.8747	125.0000
53.8942	130.0000
53.9136	117.0000
53.9331	127.0000
53.9525	127.0000
53.9720	127.0000
53.9915	135.0000
54.0109	136.0000
54.0304	122.0000
54.0498	130.0000
54.0693	116.0000
54.0887	103.0000
54.1082	116.0000
54.1277	121.0000
54.1471	123.0000
54.1666	119.0000
54.1860	115.0000
54.2055	119.0000
54.2249	136.0000
54.2444	126.0000
54.2639	130.0000
54.2833	130.0000
54.3028	125.0000
54.3222	118.0000
54.3417	95.0000
54.3611	128.0000
54.3806	130.0000
54.4001	131.0000
54.4195	109.0000
54.4390	107.0000
54.4584	142.0000
54.4779	142.0000
54.4973	115.0000
54.5168	130.0000
54.5363	129.0000
54.5557	112.0000
54.5752	122.0000
54.5946	122.0000
54.6141	111.0000
54.6335	109.0000
54.6530	114.0000
54.6725	139.0000
54.6919	133.0000
54.7114	119.0000
54.7308	109.0000
54.7503	132.0000
54.7697	139.0000
54.7892	124.0000
54.8087	146.0000
54.8281	116.0000
54.8476	127.0000
54.8670	105.0000
54.8865	110.0000
54.9059	130.0000
54.9254	119.0000
54.9448	128.0000
54.9643	116.0000
54.9838	96.0000
55.0032	121.0000
55.0227	112.0000
55.0421	114.0000
55.0616	104.0000
55.0810	139.0000
55.1005	134.0000
55.1200	134.0000
55.1394	119.0000
55.1589	131.0000
55.1783	113.0000
55.1978	106.0000
55.2172	111.0000
55.2367	118.0000
55.2562	122.0000
55.2756	130.0000
55.2951	117.0000
55.3145	130.0000
55.3340	128.0000
55.3534	123.0000
55.3729	120.0000
55.3924	131.0000
55.4118	123.0000
55.4313	126.0000
55.4507	137.0000
55.4702	127.0000
55.4896	118.0000
55.5091	134.0000
55.5286	145.0000
55.5480	115.0000
55.5675	128.0000
55.5869	107.0000
55.6064	135.0000
55.6258	134.0000
55.6453	118.0000
55.6648	135.0000
55.6842	119.0000
55.7037	124.0000
55.7231	110.0000
55.7426	127.0000
55.7620	118.0000
55.7815	122.0000
55.8010	115.0000
55.8204	112.0000
55.8399	119.0000
55.8593	125.0000
55.8788	125.0000
55.8982	124.0000
55.9177	126.0000
55.9372	108.0000
55.9566	112.0000
55.9761	97.0000
55.9955	132.0000
56.0150	131.0000
56.0344	116.0000
56.0539	142.0000
56.0734	118.0000
56.0928	134.0000
56.1123	121.0000
56.1317	96.0000
56.1512	125.0000
56.1706	138.0000
56.1901	106.0000
56.2096	96.0000
56.2290	112.0000
56.2485	123.0000
56.2679	144.0000
56.2874	122.0000
56.3068	136.0000
56.3263	124.0000
56.3458	126.0000
56.3652	131.0000
56.3847	124.0000
56.4041	137.0000
56.4236	99.0000
56.4430	136.0000
56.4625	142.0000
56.4820	137.0000
56.5014	118.0000
56.5209	121.0000
56.5403	120.0000
56.5598	109.0000
56.5792	114.0000
56.5987	129.0000
56.6182	130.0000
56.6376	125.0000
56.6571	130.0000
56.6765	118.0000
56.6960	107.0000
56.7154	125.0000
56.7349	119.0000
56.7544	112.0000
56.7738	134.0000
56.7933	132.0000
56.8127	122.0000
56.8322	126.0000
56.8516	119.0000
56.8711	111.0000
56.8906	137.0000
56.9100	123.0000
56.9295	145.0000
56.9489	126.0000
56.9684	122.0000
56.9878	124.0000
57.0073	102.0000
57.0268	139.0000
57.0462	120.0000
57.0657	140.0000
57.0851	140.0000
57.1046	108.0000
57.1240	122.0000
57.1435	111.0000
57.1630	126.0000
57.1824	136.0000
57.2019	116.0000
57.2213	114.0000
57.2408	113.0000
57.2602	124.0000
57.2797	112.0000
57.2992	107.0000
57.3186	125.0000
57.3381	124.0000
57.3575	128.0000
57.3770	119.0000
57.3964	129.0000
57.4159	109.0000
57.4354	120.0000
57.4548	127.0000
57.4743	139.0000
57.4937	131.0000
57.5132	138.0000
57.5326	128.0000
57.5521	116.0000
57.5716	111.0000
57.5910	113.0000
57.6105	113.0000
57.6299	141.0000
57.6494	135.0000
57.6688	113.0000
57.6883	137.0000
57.7077	132.0000
57.7272	130.0000
57.7467	116.0000
57.7661	124.0000
57.7856	109.0000
57.8050	128.0000
57.8245	119.0000
57.8439	121.0000
57.8634	112.0000
57.8829	132.0000
57.9023	122.0000
57.9218	142.0000
57.9412	124.0000
57.9607	119.0000
57.9801	114.0000
57.9996	124.0000
58.0191	117.0000
58.0385	109.0000
58.0580	104.0000
58.0774	116.0000
58.0969	137.0000
58.1163	135.0000
58.1358	116.0000
58.1553	115.0000
58.1747	146.0000
58.1942	125.0000
58.2136	122.0000
58.2331	104.0000
58.2525	127.0000
58.2720	103.0000
58.2915	126.0000
58.3109	104.0000
58.3304	111.0000
58.3498	117.0000
58.3693	136.0000
58.3887	115.0000
58.4082	119.0000
58.4277	126.0000
58.4471	152.0000
58.4666	135.0000
58.4860	118.0000
58.5055	120.0000
58.5249	119.0000
58.5444	117.0000
58.5639	120.0000
58.5833	95.0000
58.6028	112.0000
58.6222	118.0000
58.6417	119.0000
58.6611	142.0000
58.6806	126.0000
58.7001	114.0000
58.7195	134.0000
58.7390	126.0000
58.7584	114.0000
58.7779	119.0000
58.7973	124.0000
58.8168	143.0000
58.8363	121.0000
58.8557	136.0000
58.8752	129.0000
58.8946	108.0000
58.9141	124.0000
58.9335	147.0000
58.9530	132.0000
58.9725	116.0000
58.9919	120.0000
59.0114	130.0000
59.0308	132.0000
59.0503	123.0000
59.0697	119.0000
59.0892	118.0000
59.1087	122.0000
59.1281	126.0000
59.1476	121.0000
59.1670	118.0000
59.1865	123.0000
59.2059	110.0000
59.2254	123.0000
59.2449	125.0000
59.2643	104.0000
59.2838	110.0000
59.3032	122.0000
59.3227	108.0000
59.3421	145.0000
59.3616	126.0000
59.3811	113.0000
59.4005	110.0000
59.4200	144.0000
59.4394	115.0000
59.4589	115.0000
59.4783	113.0000
59.4978	120.0000
59.5173	125.0000
59.5367	147.0000
59.5562	103.0000
59.5756	115.0000
59.5951	119.0000
59.6145	116.0000
59.6340	121.0000
59.6535	130.0000
59.6729	137.0000
59.6924	124.0000
59.7118	141.0000
59.7313	139.0000
59.7507	123.0000
59.7702	117.0000
59.7897	130.0000
59.8091	122.0000
59.8286	124.0000
59.8480	108.0000
59.8675	126.0000
59.8869	126.0000
59.9064	123.0000
59.9259	137.0000
59.9453	127.0000
59.9648	148.0000
59.9842	123.0000
60.0037	137.0000
60.0231	141.0000
60.0426	141.0000
60.0621	108.0000
60.0815	137.0000
60.1010	123.0000
60.1204	117.0000
60.1399	122.0000
60.1593	130.0000
60.1788	133.0000
60.1983	133.0000
60.2177	128.0000
60.2372	126.0000
60.2566	126.0000
60.2761	137.0000
60.2955	132.0000
60.3150	124.0000
60.3345	124.0000
60.3539	122.0000
60.3734	124.0000
60.3928	125.0000
60.4123	100.0000
60.4317	119.0000
60.4512	121.0000
60.4706	143.0000
60.4901	115.0000
60.5096	126.0000
60.5290	123.0000
60.5485	124.0000
60.5679	115.0000
60.5874	112.0000
60.6068	116.0000
60.6263	130.0000
60.6458	95.0000
60.6652	124.0000
60.6847	117.0000
60.7041	127.0000
60.7236	112.0000
60.7430	126.0000
60.7625	116.0000
60.7820	114.0000
60.8014	132.0000
60.8209	103.0000
60.8403	130.0000
60.8598	134.0000
60.8792	113.0000
60.8987	125.0000
60.9182	120.0000
60.9376	112.0000
60.9571	133.0000
60.9765	119.0000
60.9960	124.0000
61.0154	133.0000
61.0349	110.0000
61.0544	140.0000
61.0738	126.0000
61.0933	131.0000
61.1127	114.0000
61.1322	107.0000
61.1516	117.0000
61.1711	136.0000
61.1906	129.0000
61.2100	124.0000
61.2295	113.0000
61.2489	130.0000
61.2684	109.0000
61.2878	117.0000
61.3073	118.0000
61.3268	117.0000
61.3462	117.0000
61.3657	116.0000
61.3851	131.0000
61.4046	113.0000
61.4240	141.0000
61.4435	123.0000
61.4630	123.0000
61.4824	132.0000
61.5019	122.0000
61.5213	110.0000
61.5408	125.0000
61.5602	114.0000
61.5797	133.0000
61.5992	120.0000
61.6186	117.0000
61.6381	136.0000
61.6575	120.0000
61.6770	98.0000
61.6964	109.0000
61.7159	135.0000
61.7354	108.0000
61.7548	116.0000
61.7743	119.0000
61.7937	101.0000
61.8132	117.0000
61.8326	114.0000
61.8521	120.0000
61.8716	109.0000
61.8910	125.0000
61.9105	118.0000
61.9299	122.0000
61.9494	122.0000
61.9688	117.0000
61.9883	100.0000
62.0078	127.0000
62.0272	123.0000
62.0467	109.0000
62.0661	122.0000
62.0856	134.0000
62.1050	129.0000
62.1245	122.0000
62.1440	138.0000
62.1634	120.0000
62.1829	128.0000
62.2023	108.0000
62.2218	110.0000
62.2412	116.0000
62.2607	122.0000
62.2802	113.0000
62.2996	116.0000
62.3191	114.0000
62.3385	115.0000
62.3580	104.0000
62.3774	151.0000
62.3969	130.0000
62.4164	128.0000
62.4358	137.0000
62.4553	118.0000
62.4747	121.0000
62.4942	120.0000
62.5136	104.0000
62.5331	121.0000
62.5526	125.0000
62.5720	127.0000
62.5915	113.0000
62.6109	101.0000
62.6304	133.0000
62.6498	124.0000
62.6693	116.0000
62.6888	124.0000
62.7082	140.0000
62.7277	129.0000
62.7471	150.0000
62.7666	98.0000
62.7860	107.0000
62.8055	113.0000
62.8250	149.0000
62.8444	114.0000
62.8639	113.0000
62.8833	129.0000
62.9028	116.0000
62.9222	129.0000
62.9417	123.0000
62.9612	116.0000
62.9806	107.0000
63.0001	121.0000
63.0195	124.0000
63.0390	108.0000
63.0584	102.0000
63.0779	132.0000
63.0974	130.0000
63.1168	134.0000
63.1363	123.0000
63.1557	142.0000
63.1752	122.0000
63.1946	139.0000
63.2141	140.0000
63.2336	114.0000
63.2530	133.0000
63.2725	125.0000
63.2919	103.0000
63.3114	126.0000
63.3308	130.0000
63.3503	120.0000
63.3697	99.0000
63.3892	124.0000
63.4087	127.0000
63.4281	123.0000
63.4476	114.0000
63.4670	114.0000
63.4865	133.0000
63.5059	127.0000
63.5254	113.0000
63.5449	120.0000
63.5643	121.0000
63.5838	115.0000
63.6032	104.0000
63.6227	122.0000
63.6421	127.0000
63.6616	132.0000
63.6811	122.0000
63.7005	131.0000
63.7200	125.0000
63.7394	120.0000
63.7589	123.0000
63.7783	132.0000
63.7978	128.0000
63.8173	131.0000
63.8367	132.0000
63.8562	131.0000
63.8756	141.0000
63.8951	117.0000
63.9145	126.0000
63.9340	132.0000
63.9535	138.0000
63.9729	107.0000
63.9924	115.0000
64.0118	125.0000
64.0313	121.0000
64.0507	117.0000
64.0702	113.0000
64.0897	132.0000
64.1091	120.0000
64.1286	133.0000
64.1480	129.0000
64.1675	121.0000
64.1869	122.0000
64.2064	120.0000
64.2259	109.0000
64.2453	128.0000
64.2648	117.0000
64.2842	129.0000
64.3037	117.0000
64.3231	149.0000
64.3426	107.0000
64.3621	136.0000
64.3815	109.0000
64.4010	145.0000
64.4204	113.0000
64.4399	132.0000
64.4593	116.0000
64.4788	125.0000
64.4983	133.0000
64.5177	109.0000
64.5372	120.0000
64.5566	115.0000
64.5761	126.0000
64.5955	132.0000
64.6150	151.0000
64.6345	136.0000
64.6539	139.0000
64.6734	133.0000
64.6928	143.0000
64.7123	146.0000
64.7317	111.0000
64.7512	108.0000
64.7707	129.0000
64.7901	133.0000
64.8096	118.0000
64.8290	133.0000
64.8485	134.0000
64.8679	143.0000
64.8874	126.0000
64.9069	121.0000
64.9263	112.0000
64.9458	127.0000
64.9652	125.0000
64.9847	109.0000
65.0041	136.0000
65.0236	131.0000
65.0431	129.0000
65.0625	128.0000
65.0820	122.0000
65.1014	126.0000
65.1209	142.0000
65.1403	143.0000
65.1598	112.0000
65.1793	134.0000
65.1987	132.0000
65.2182	119.0000
65.2376	124.0000
65.2571	123.0000
65.2765	119.0000
65.2960	112.0000
65.3155	113.0000
65.3349	106.0000
65.3544	130.0000
65.3738	112.0000
65.3933	127.0000
65.4127	148.0000
65.4322	122.0000
65.4517	116.0000
65.4711	111.0000
65.4906	153.0000
65.5100	134.0000
65.5295	110.0000
65.5489	131.0000
65.5684	118.0000
65.5879	116.0000
65.6073	143.0000
65.6268	134.0000
65.6462	109.0000
65.6657	147.0000
65.6851	131.0000
65.7046	123.0000
65.7241	122.0000
65.7435	116.0000
65.7630	120.0000
65.7824	124.0000
65.8019	107.0000
65.8213	114.0000
65.8408	136.0000
65.8603	119.0000
65.8797	101.0000
65.8992	118.0000
65.9186	139.0000
65.9381	122.0000
65.9575	120.0000
65.9770	126.0000
65.9965	118.0000
66.0159	115.0000
66.0354	118.0000
66.0548	120.0000
66.0743	138.0000
66.0937	111.0000
66.1132	135.0000
66.1326	127.0000
66.1521	145.0000
66.1716	129.0000
66.1910	120.0000
66.2105	119.0000
66.2299	118.0000
66.2494	120.0000
66.2688	120.0000
66.2883	121.0000
66.3078	117.0000
66.3272	112.0000
66.3467	118.0000
66.3661	127.0000
66.3856	117.0000
66.4050	128.0000
66.4245	137.0000
66.4440	149.0000
66.4634	133.0000
66.4829	135.0000
66.5023	108.0000
66.5218	107.0000
66.5412	138.0000
66.5607	117.0000
66.5802	104.0000
66.5996	108.0000
66.6191	113.0000
66.6385	129.0000
66.6580	117.0000
66.6774	131.0000
66.6969	116.0000
66.7164	118.0000
66.7358	135.0000
66.7553	131.0000
66.7747	133.0000
66.7942	119.0000
66.8136	136.0000
66.8331	120.0000
66.8526	126.0000
66.8720	134.0000
66.8915	119.0000
66.9109	129.0000
66.9304	109.0000
66.9498	116.0000
66.9693	135.0000
66.9888	146.0000
67.0082	134.0000
67.0277	120.0000
67.0471	119.0000
67.0666	117.0000
67.0860	127.0000
67.1055	133.0000
67.1250	141.0000
67.1444	110.0000
67.1639	114.0000
67.1833	120.0000
67.2028	118.0000
67.2222	129.0000
67.2417	125.0000
67.2612	131.0000
67.2806	120.0000
67.3001	104.0000
67.3195	112.0000
67.3390	129.0000
67.3584	115.0000
67.3779	144.0000
67.3974	104.0000
67.4168	110.0000
67.4363	145.0000
67.4557	92.0000
67.4752	132.0000
67.4946	104.0000
67.5141	120.0000
67.5336	122.0000
67.5530	124.0000
67.5725	124.0000
67.5919	118.0000
67.6114	115.0000
67.6308	120.0000
67.6503	118.0000
67.6698	108.0000
67.6892	109.0000
67.7087	98.0000
67.7281	129.0000
67.7476	136.0000
67.7670	118.0000
67.7865	105.0000
67.8060	116.0000
67.8254	111.0000
67.8449	123.0000
67.8643	119.0000
67.8838	139.0000
67.9032	103.0000
67.9227	131.0000
67.9422	106.0000
67.9616	131.0000
67.9811	124.0000
68.0005	130.0000
68.0200	137.0000
68.0394	108.0000
68.0589	143.0000
68.0784	112.0000
68.0978	112.0000
68.1173	128.0000
68.1367	129.0000
68.1562	95.0000
68.1756	111.0000
68.1951	116.0000
68.2146	114.0000
68.2340	124.0000
68.2535	141.0000
68.2729	129.0000
68.2924	146.0000
68.3118	130.0000
68.3313	109.0000
68.3508	117.0000
68.3702	130.0000
68.3897	122.0000
68.4091	114.0000
68.4286	120.0000
68.4480	134.0000
68.4675	138.0000
68.4870	105.0000
68.5064	132.0000
68.5259	132.0000
68.5453	139.0000
68.5648	117.0000
68.5842	137.0000
68.6037	143.0000
68.6232	123.0000
68.6426	120.0000
68.6621	121.0000
68.6815	121.0000
68.7010	125.0000
68.7204	92.0000
68.7399	134.0000
68.7594	121.0000
68.7788	110.0000
68.7983	122.0000
68.8177	123.0000
68.8372	127.0000
68.8566	118.0000
68.8761	105.0000
68.8955	96.0000
68.9150	133.0000
68.9345	109.0000
68.9539	121.0000
68.9734	126.0000
68.9928	122.0000
69.0123	109.0000
69.0317	128.0000
69.0512	121.0000
69.0707	114.0000
69.0901	111.0000
69.1096	131.0000
69.1290	107.0000
69.1485	125.0000
69.1679	137.0000
69.1874	137.0000
69.2069	117.0000
69.2263	136.0000
69.2458	131.0000
69.2652	108.0000
69.2847	129.0000
69.3041	126.0000
69.3236	118.0000
69.3431	123.0000
69.3625	127.0000
69.3820	123.0000
69.4014	128.0000
69.4209	127.0000
69.4403	137.0000
69.4598	126.0000
69.4793	120.0000
69.4987	145.0000
69.5182	109.0000
69.5376	140.0000
69.5571	122.0000
69.5765	110.0000
69.5960	141.0000
69.6155	121.0000
69.6349	136.0000
69.6544	128.0000
69.6738	132.0000
69.6933	131.0000
69.7127	125.0000
69.7322	144.0000
69.7517	109.0000
69.7711	123.0000
69.7906	118.0000
69.8100	122.0000
69.8295	112.0000
69.8489	131.0000
69.8684	123.0000
69.8879	124.0000
69.9073	138.0000
69.9268	129.0000
69.9462	146.0000
69.9657	104.0000
69.9851	111.0000
70.0046	125.0000
70.0241	116.0000
70.0435	140.0000
70.0630	147.0000
70.0824	130.0000
70.1019	119.0000
70.1213	107.0000
70.1408	133.0000
70.1603	118.0000
70.1797	139.0000
70.1992	149.0000
70.2186	102.0000
70.2381	109.0000
70.2575	134.0000
70.2770	112.0000
70.2965	105.0000
70.3159	122.0000
70.3354	117.0000
70.3548	124.0000
70.3743	132.0000
70.3937	143.0000
70.4132	108.0000
70.4327	124.0000
70.4521	135.0000
70.4716	121.0000
70.4910	134.0000
70.5105	128.0000
70.5299	141.0000
70.5494	137.0000
70.5689	135.0000
70.5883	119.0000
70.6078	112.0000
70.6272	131.0000
70.6467	144.0000
70.6661	124.0000
70.6856	118.0000
70.7051	112.0000
70.7245	128.0000
70.7440	121.0000
70.7634	111.0000
70.7829	119.0000
70.8023	115.0000
70.8218	144.0000
70.8413	148.0000
70.8607	120.0000
70.8802	103.0000
70.8996	126.0000
70.9191	122.0000
70.9385	120.0000
70.9580	119.0000
70.9775	130.0000
70.9969	126.0000
71.0164	126.0000
71.0358	122.0000
71.0553	131.0000
71.0747	120.0000
71.0942	111.0000
71.1137	120.0000
71.1331	134.0000
71.1526	117.0000
71.1720	126.0000
71.1915	122.0000
71.2109	136.0000
71.2304	123.0000
71.2499	102.0000
71.2693	120.0000
71.2888	140.0000
71.3082	128.0000
71.3277	119.0000
71.3471	113.0000
71.3666	136.0000
71.3861	141.0000
71.4055	120.0000
71.4250	131.0000
71.4444	123.0000
71.4639	110.0000
71.4833	123.0000
71.5028	119.0000
71.5223	126.0000
71.5417	130.0000
71.5612	123.0000
71.5806	128.0000
71.6001	133.0000
71.6195	116.0000
71.6390	121.0000
71.6584	142.0000
71.6779	118.0000
71.6974	113.0000
71.7168	126.0000
71.7363	118.0000
71.7557	151.0000
71.7752	125.0000
71.7946	115.0000
71.8141	121.0000
71.8336	135.0000
71.8530	109.0000
71.8725	127.0000
71.8919	121.0000
71.9114	125.0000
71.9308	137.0000
71.9503	125.0000
71.9698	138.0000
71.9892	112.0000
72.0087	142.0000
72.0281	136.0000
72.0476	141.0000
72.0670	129.0000
72.0865	126.0000
72.1060	136.0000
72.1254	133.0000
72.1449	130.0000
72.1643	143.0000
72.1838	140.0000
72.2032	123.0000
72.2227	115.0000
72.2422	139.0000
72.2616	110.0000
72.2811	153.0000
72.3005	121.0000
72.3200	149.0000
72.3394	145.0000
72.3589	136.0000
72.3784	138.0000
72.3978	151.0000
72.4173	130.0000
72.4367	111.0000
72.4562	128.0000
72.4756	136.0000
72.4951	125.0000
72.5146	129.0000
72.5340	120.0000
72.5535	135.0000
72.5729	119.0000
72.5924	131.0000
72.6118	121.0000
72.6313	129.0000
72.6508	132.0000
72.6702	137.0000
72.6897	116.0000
72.7091	133.0000
72.7286	132.0000
72.7480	140.0000
72.7675	110.0000
72.7870	142.0000
72.8064	112.0000
72.8259	120.0000
72.8453	104.0000
72.8648	129.0000
72.8842	130.0000
72.9037	131.0000
72.9232	142.0000
72.9426	122.0000
72.9621	129.0000
72.9815	106.0000
73.0010	125.0000
73.0204	123.0000
73.0399	149.0000
73.0594	128.0000
73.0788	140.0000
73.0983	112.0000
73.1177	118.0000
73.1372	129.0000
73.1566	106.0000
73.1761	130.0000
73.1956	130.0000
73.2150	129.0000
73.2345	127.0000
73.2539	139.0000
73.2734	118.0000
73.2928	107.0000
73.3123	129.0000
73.3318	138.0000
73.3512	128.0000
73.3707	144.0000
73.3901	130.0000
73.4096	124.0000
73.4290	124.0000
73.4485	139.0000
73.4680	105.0000
73.4874	133.0000
73.5069	143.0000
73.5263	117.0000
73.5458	137.0000
73.5652	135.0000
73.5847	138.0000
73.6042	113.0000
73.6236	121.0000
73.6431	126.0000
73.6625	139.0000
73.6820	128.0000
73.7014	113.0000
73.7209	118.0000
73.7404	125.0000
73.7598	141.0000
73.7793	127.0000
73.7987	151.0000
73.8182	93.0000
73.8376	128.0000
73.8571	130.0000
73.8766	148.0000
73.8960	117.0000
73.9155	139.0000
73.9349	118.0000
73.9544	122.0000
73.9738	124.0000
73.9933	122.0000
74.0128	129.0000
74.0322	146.0000
74.0517	150.0000
74.0711	137.0000
74.0906	123.0000
74.1100	132.0000
74.1295	139.0000
74.1490	119.0000
74.1684	116.0000
74.1879	147.0000
74.2073	129.0000
74.2268	141.0000
74.2462	110.0000
74.2657	139.0000
74.2852	131.0000
74.3046	140.0000
74.3241	122.0000
74.3435	119.0000
74.3630	137.0000
74.3824	143.0000
74.4019	145.0000
74.4213	132.0000
74.4408	153.0000
74.4603	131.0000
74.4797	147.0000
74.4992	143.0000
74.5186	142.0000
74.5381	144.0000
74.5575	160.0000
74.5770	143.0000
74.5965	144.0000
74.6159	127.0000
74.6354	150.0000
74.6548	145.0000
74.6743	128.0000
74.6937	159.0000
74.7132	139.0000
74.7327	160.0000
74.7521	152.0000
74.7716	157.0000
74.7910	181.0000
74.8105	154.0000
74.8299	169.0000
74.8494	157.0000
74.8689	171.0000
74.8883	134.0000
74.9078	191.0000
74.9272	173.0000
74.9467	185.0000
74.9661	178.0000
74.9856	206.0000
75.0051	218.0000
75.0245	218.0000
75.0440	212.0000
75.0634	228.0000
75.0829	204.0000
75.1023	206.0000
75.1218	225.0000
75.1413	208.0000
75.1607	190.0000
75.1802	210.0000
75.1996	214.0000
75.2191	216.0000
75.2385	221.0000
75.2580	187.0000
75.2775	220.0000
75.2969	177.0000
75.3164	194.0000
75.3358	196.0000
75.3553	181.0000
75.3747	181.0000
75.3942	184.0000
75.4137	168.0000
75.4331	176.0000
75.4526	158.0000
75.4720	174.0000
75.4915	169.0000
75.5109	157.0000
75.5304	155.0000
75.5499	143.0000
75.5693	149.0000
75.5888	155.0000
75.6082	121.0000
75.6277	157.0000
75.6471	134.0000
75.6666	129.0000
75.6861	140.0000
75.7055	145.0000
75.7250	130.0000
75.7444	141.0000
75.7639	117.0000
75.7833	146.0000
75.8028	133.0000
75.8223	125.0000
75.8417	145.0000
75.8612	117.0000
75.8806	149.0000
75.9001	146.0000
75.9195	108.0000
75.9390	156.0000
75.9585	128.0000
75.9779	114.0000
75.9974	136.0000
76.0168	128.0000
76.0363	119.0000
76.0557	121.0000
76.0752	147.0000
76.0947	145.0000
76.1141	141.0000
76.1336	121.0000
76.1530	153.0000
76.1725	105.0000
76.1919	126.0000
76.2114	149.0000
76.2309	126.0000
76.2503	116.0000
76.2698	140.0000
76.2892	148.0000
76.3087	132.0000
76.3281	151.0000
76.3476	136.0000
76.3671	131.0000
76.3865	159.0000
76.4060	125.0000
76.4254	157.0000
76.4449	131.0000
76.4643	148.0000
76.4838	139.0000
76.5033	127.0000
76.5227	125.0000
76.5422	124.0000
76.5616	129.0000
76.5811	124.0000
76.6005	124.0000
76.6200	129.0000
76.6395	122.0000
76.6589	126.0000
76.6784	137.0000
76.6978	114.0000
76.7173	126.0000
76.7367	148.0000
76.7562	120.0000
76.7757	146.0000
76.7951	135.0000
76.8146	121.0000
76.8340	136.0000
76.8535	130.0000
76.8729	109.0000
76.8924	112.0000
76.9119	106.0000
76.9313	127.0000
76.9508	114.0000
76.9702	132.0000
76.9897	119.0000
77.0091	123.0000
77.0286	117.0000
77.0481	109.0000
77.0675	136.0000
77.0870	124.0000
77.1064	141.0000
77.1259	135.0000
77.1453	128.0000
77.1648	125.0000
77.1843	136.0000
77.2037	118.0000
77.2232	137.0000
77.2426	129.0000
77.2621	112.0000
77.2815	121.0000
77.3010	115.0000
77.3204	111.0000
77.3399	133.0000
77.3594	139.0000
77.3788	119.0000
77.3983	133.0000
77.4177	120.0000
77.4372	125.0000
77.4566	153.0000
77.4761	135.0000
77.4956	146.0000
77.5150	130.0000
77.5345	122.0000
77.5539	110.0000
77.5734	124.0000
77.5928	137.0000
77.6123	119.0000
77.6318	128.0000
77.6512	139.0000
77.6707	117.0000
77.6901	135.0000
77.7096	145.0000
77.7290	136.0000
77.7485	111.0000
77.7680	133.0000
77.7874	136.0000
77.8069	112.0000
77.8263	131.0000
77.8458	127.0000
77.8652	119.0000
77.8847	119.0000
77.9042	127.0000
77.9236	117.0000
77.9431	129.0000
77.9625	119.0000
77.9820	134.0000
78.0014	152.0000
78.0209	136.0000
78.0404	125.0000
78.0598	123.0000
78.0793	108.0000
78.0987	131.0000
78.1182	123.0000
78.1376	116.0000
78.1571	148.0000
78.1766	128.0000
78.1960	123.0000
78.2155	124.0000
78.2349	134.0000
78.2544	137.0000
78.2738	140.0000
78.2933	135.0000
78.3128	127.0000
78.3322	149.0000
78.3517	132.0000
78.3711	132.0000
78.3906	121.0000
78.4100	122.0000
78.4295	140.0000
78.4490	115.0000
78.4684	151.0000
78.4879	120.0000
78.5073	120.0000
78.5268	139.0000
78.5462	128.0000
78.5657	115.0000
78.5852	121.0000
78.6046	133.0000
78.6241	107.0000
78.6435	133.0000
78.6630	145.0000
78.6824	141.0000
78.7019	122.0000
78.7214	137.0000
78.7408	133.0000
78.7603	124.0000
78.7797	133.0000
78.7992	112.0000
78.8186	134.0000
78.8381	111.0000
78.8576	130.0000
78.8770	153.0000
78.8965	140.0000
78.9159	134.0000
78.9354	122.0000
78.9548	123.0000
78.9743	134.0000
78.9938	125.0000
79.0132	128.0000
79.0327	130.0000
79.0521	121.0000
79.0716	119.0000
79.0910	127.0000
79.1105	126.0000
79.1300	139.0000
79.1494	139.0000
79.1689	115.0000
79.1883	123.0000
79.2078	123.0000
79.2272	119.0000
79.2467	131.0000
79.2662	137.0000
79.2856	137.0000
79.3051	131.0000
79.3245	145.0000
79.3440	148.0000
79.3634	146.0000
79.3829	110.0000
79.4024	110.0000
79.4218	132.0000
79.4413	136.0000
79.4607	129.0000
79.4802	123.0000
79.4996	139.0000
79.5191	110.0000
79.5386	140.0000
79.5580	143.0000
79.5775	150.0000
79.5969	125.0000
79.6164	124.0000
79.6358	136.0000
79.6553	131.0000
79.6748	122.0000
79.6942	127.0000
79.7137	137.0000
79.7331	150.0000
79.7526	125.0000
79.7720	136.0000
79.7915	138.0000
79.8110	103.0000
79.8304	119.0000
79.8499	144.0000
79.8693	128.0000
79.8888	137.0000
79.9082	145.0000
79.9277	131.0000
79.9472	136.0000
79.9666	125.0000
79.9861	129.0000
80.0055	128.0000
80.0250	129.0000
80.0444	128.0000
80.0639	134.0000
80.0833	147.0000
80.1028	136.0000
80.1223	123.0000
80.1417	143.0000
80.1612	147.0000
80.1806	120.0000
80.2001	131.0000
80.2195	134.0000
80.2390	125.0000
80.2585	137.0000
80.2779	147.0000
80.2974	142.0000
80.3168	123.0000
80.3363	127.0000
80.3557	136.0000
80.3752	132.0000
80.3947	118.0000
80.4141	151.0000
80.4336	114.0000
80.4530	133.0000
80.4725	135.0000
80.4919	135.0000
80.5114	135.0000
80.5309	122.0000
80.5503	154.0000
80.5698	138.0000
80.5892	148.0000
80.6087	143.0000
80.6281	119.0000
80.6476	135.0000
80.6671	119.0000
80.6865	179.0000
80.7060	134.0000
80.7254	135.0000
80.7449	139.0000
80.7643	119.0000
80.7838	135.0000
80.8033	124.0000
80.8227	128.0000
80.8422	130.0000
80.8616	131.0000
80.8811	135.0000
80.9005	138.0000
80.9200	139.0000
80.9395	129.0000
80.9589	129.0000
80.9784	127.0000
80.9978	152.0000
81.0173	138.0000
81.0367	144.0000
81.0562	140.0000
81.0757	119.0000
81.0951	121.0000
81.1146	143.0000
81.1340	126.0000
81.1535	116.0000
81.1729	125.0000
81.1924	134.0000
81.2119	118.0000
81.2313	120.0000
81.2508	161.0000
81.2702	112.0000
81.2897	119.0000
81.3091	124.0000
81.3286	120.0000
81.3481	105.0000
81.3675	136.0000
81.3870	125.0000
81.4064	145.0000
81.4259	140.0000
81.4453	157.0000
81.4648	144.0000
81.4843	99.0000
81.5037	130.0000
81.5232	135.0000
81.5426	114.0000
81.5621	122.0000
81.5815	146.0000
81.6010	114.0000
81.6205	119.0000
81.6399	112.0000
81.6594	127.0000
81.6788	141.0000
81.6983	111.0000
81.7177	129.0000
81.7372	122.0000
81.7567	154.0000
81.7761	129.0000
81.7956	143.0000
81.8150	113.0000
81.8345	143.0000
81.8539	138.0000
81.8734	129.0000
81.8929	137.0000
81.9123	105.0000
81.9318	128.0000
81.9512	123.0000
81.9707	127.0000
81.9901	117.0000
82.0096	129.0000
82.0291	134.0000
82.0485	126.0000
82.0680	115.0000
82.0874	151.0000
82.1069	126.0000
82.1263	136.0000
82.1458	102.0000
82.1653	132.0000
82.1847	123.0000
82.2042	135.0000
82.2236	106.0000
82.2431	142.0000
82.2625	147.0000
82.2820	111.0000
82.3015	132.0000
82.3209	144.0000
82.3404	127.0000
82.3598	128.0000
82.3793	132.0000
82.3987	114.0000
82.4182	127.0000
82.4377	119.0000
82.4571	143.0000
82.4766	128.0000
82.4960	114.0000
82.5155	130.0000
82.5349	120.0000
82.5544	109.0000
82.5739	130.0000
82.5933	126.0000
82.6128	159.0000
82.6322	132.0000
82.6517	142.0000
82.6711	136.0000
82.6906	139.0000
82.7101	121.0000
82.7295	137.0000
82.7490	135.0000
82.7684	135.0000
82.7879	126.0000
82.8073	144.0000
82.8268	135.0000
82.8462	151.0000
82.8657	140.0000
82.8852	137.0000
82.9046	130.0000
82.9241	124.0000
82.9435	131.0000
82.9630	151.0000
82.9824	123.0000
83.0019	114.0000
83.0214	143.0000
83.0408	134.0000
83.0603	147.0000
83.0797	128.0000
83.0992	141.0000
83.1186	136.0000
83.1381	135.0000
83.1576	143.0000
83.1770	134.0000
83.1965	132.0000
83.2159	139.0000
83.2354	131.0000
83.2548	126.0000
83.2743	130.0000
83.2938	131.0000
83.3132	128.0000
83.3327	121.0000
83.3521	146.0000
83.3716	132.0000
83.3910	124.0000
83.4105	132.0000
83.4300	144.0000
83.4494	128.0000
83.4689	146.0000
83.4883	155.0000
83.5078	137.0000
83.5272	128.0000
83.5467	125.0000
83.5662	157.0000
83.5856	134.0000
83.6051	116.0000
83.6245	128.0000
83.6440	129.0000
83.6634	146.0000
83.6829	149.0000
83.7024	119.0000
83.7218	138.0000
83.7413	111.0000
83.7607	137.0000
83.7802	134.0000
83.7996	126.0000
83.8191	121.0000
83.8386	107.0000
83.8580	153.0000
83.8775	122.0000
83.8969	114.0000
83.9164	110.0000
83.9358	134.0000
83.9553	148.0000
83.9748	147.0000
83.9942	138.0000
84.0137	170.0000
84.0331	105.0000
84.0526	135.0000
84.0720	129.0000
84.0915	136.0000
84.1110	142.0000
84.1304	145.0000
84.1499	130.0000
84.1693	141.0000
84.1888	137.0000
84.2082	126.0000
84.2277	135.0000
84.2472	135.0000
84.2666	110.0000
84.2861	165.0000
84.3055	128.0000
84.3250	104.0000
84.3444	133.0000
84.3639	130.0000
84.3834	121.0000
84.4028	150.0000
84.4223	134.0000
84.4417	131.0000
84.4612	128.0000
84.4806	125.0000
84.5001	155.0000
84.5196	115.0000
84.5390	120.0000
84.5585	118.0000
84.5779	128.0000
84.5974	130.0000
84.6168	130.0000
84.6363	137.0000
84.6558	122.0000
84.6752	129.0000
84.6947	127.0000
84.7141	124.0000
84.7336	123.0000
84.7530	138.0000
84.7725	142.0000
84.7920	134.0000
84.8114	119.0000
84.8309	116.0000
84.8503	123.0000
84.8698	120.0000
84.8892	141.0000
84.9087	132.0000
84.9282	133.0000
84.9476	128.0000
84.9671	128.0000
84.9865	121.0000
85.0060	127.0000
85.0254	132.0000
85.0449	140.0000
85.0644	108.0000
85.0838	120.0000
85.1033	138.0000
85.1227	140.0000
85.1422	147.0000
85.1616	132.0000
85.1811	112.0000
85.2006	104.0000
85.2200	128.0000
85.2395	124.0000
85.2589	127.0000
85.2784	143.0000
85.2978	131.0000
85.3173	133.0000
85.3368	135.0000
85.3562	147.0000
85.3757	141.0000
85.3951	135.0000
85.4146	128.0000
85.4340	144.0000
85.4535	133.0000
85.4730	123.0000
85.4924	133.0000
85.5119	125.0000
85.5313	121.0000
85.5508	134.0000
85.5702	109.0000
85.5897	134.0000
85.6091	125.0000
85.6286	126.0000
85.6481	152.0000
85.6675	112.0000
85.6870	132.0000
85.7064	117.0000
85.7259	114.0000
85.7453	135.0000
85.7648	134.0000
85.7843	116.0000
85.8037	111.0000
85.8232	141.0000
85.8426	134.0000
85.8621	121.0000
85.8815	165.0000
85.9010	126.0000
85.9205	108.0000
85.9399	127.0000
85.9594	132.0000
85.9788	111.0000
85.9983	141.0000
86.0177	133.0000
86.0372	117.0000
86.0567	134.0000
86.0761	131.0000
86.0956	144.0000
86.1150	98.0000
86.1345	122.0000
86.1539	125.0000
86.1734	128.0000
86.1929	130.0000
86.2123	133.0000
86.2318	125.0000
86.2512	121.0000
86.2707	131.0000
86.2901	133.0000
86.3096	153.0000
86.3291	117.0000
86.3485	121.0000
86.3680	152.0000
86.3874	141.0000
86.4069	121.0000
86.4263	140.0000
86.4458	124.0000
86.4653	118.0000
86.4847	113.0000
86.5042	155.0000
86.5236	149.0000
86.5431	121.0000
86.5625	133.0000
86.5820	144.0000
86.6015	124.0000
86.6209	117.0000
86.6404	139.0000
86.6598	127.0000
86.6793	137.0000
86.6987	123.0000
86.7182	139.0000
86.7377	125.0000
86.7571	116.0000
86.7766	131.0000
86.7960	165.0000
86.8155	126.0000
86.8349	141.0000
86.8544	135.0000
86.8739	129.0000
86.8933	127.0000
86.9128	138.0000
86.9322	121.0000
86.9517	130.0000
86.9711	136.0000
86.9906	128.0000
87.0101	143.0000
87.0295	133.0000
87.0490	136.0000
87.0684	131.0000
87.0879	137.0000
87.1073	121.0000
87.1268	124.0000
87.1463	143.0000
87.1657	138.0000
87.1852	130.0000
87.2046	140.0000
87.2241	139.0000
87.2435	130.0000
87.2630	130.0000
87.2825	110.0000
87.3019	143.0000
87.3214	165.0000
87.3408	151.0000
87.3603	142.0000
87.3797	152.0000
87.3992	134.0000
87.4187	149.0000
87.4381	133.0000
87.4576	145.0000
87.4770	112.0000
87.4965	124.0000
87.5159	124.0000
87.5354	121.0000
87.5549	120.0000
87.5743	137.0000
87.5938	134.0000
87.6132	129.0000
87.6327	151.0000
87.6521	134.0000
87.6716	137.0000
87.6911	137.0000
87.7105	143.0000
87.7300	141.0000
87.7494	146.0000
87.7689	146.0000
87.7883	118.0000
87.8078	136.0000
87.8273	110.0000
87.8467	147.0000
87.8662	145.0000
87.8856	132.0000
87.9051	133.0000
87.9245	144.0000
87.9440	140.0000
87.9635	143.0000
87.9829	118.0000
88.0024	132.0000
88.0218	129.0000
88.0413	126.0000
88.0607	144.0000
88.0802	117.0000
88.0997	137.0000
88.1191	130.0000
88.1386	130.0000
88.1580	158.0000
88.1775	144.0000
88.1969	128.0000
88.2164	120.0000
88.2359	138.0000
88.2553	139.0000
88.2748	126.0000
88.2942	147.0000
88.3137	126.0000
88.3331	143.0000
88.3526	130.0000
88.3720	149.0000
88.3915	137.0000
88.4110	147.0000
88.4304	147.0000
88.4499	132.0000
88.4693	133.0000
88.4888	128.0000
88.5082	139.0000
88.5277	137.0000
88.5472	150.0000
88.5666	138.0000
88.5861	135.0000
88.6055	124.0000
88.6250	139.0000
88.6444	128.0000
88.6639	135.0000
88.6834	122.0000
88.7028	138.0000
88.7223	126.0000
88.7417	103.0000
88.7612	142.0000
88.7806	136.0000
88.8001	131.0000
88.8196	133.0000
88.8390	106.0000
88.8585	155.0000
88.8779	132.0000
88.8974	122.0000
88.9168	123.0000
88.9363	135.0000
88.9558	135.0000
88.9752	139.0000
88.9947	141.0000
89.0141	123.0000
89.0336	126.0000
89.0530	119.0000
89.0725	134.0000
89.0920	137.0000
89.1114	139.0000
89.1309	133.0000
89.1503	156.0000
89.1698	154.0000
89.1892	147.0000
89.2087	143.0000
89.2282	134.0000
89.2476	146.0000
89.2671	135.0000
89.2865	137.0000
89.3060	157.0000
89.3254	145.0000
89.3449	137.0000
89.3644	141.0000
89.3838	146.0000
89.4033	140.0000
89.4227	145.0000
89.4422	131.0000
89.4616	126.0000
89.4811	150.0000
89.5006	144.0000
89.5200	159.0000
89.5395	136.0000
89.5589	127.0000
89.5784	132.0000
89.5978	146.0000
89.6173	136.0000
89.6368	121.0000
89.6562	127.0000
89.6757	124.0000
89.6951	124.0000
89.7146	144.0000
89.7340	125.0000
89.7535	153.0000
89.7730	167.0000
89.7924	146.0000
89.8119	148.0000
89.8313	143.0000
89.8508	147.0000
89.8702	128.0000
89.8897	138.0000
89.9092	134.0000
89.9286	150.0000
89.9481	153.0000
89.9675	159.0000
89.9870	153.0000
90.0064	152.0000
90.0259	144.0000
90.0454	122.0000
90.0648	144.0000
90.0843	138.0000
90.1037	148.0000
90.1232	161.0000
90.1426	144.0000
90.1621	148.0000
90.1816	166.0000
90.2010	140.0000
90.2205	160.0000
90.2399	163.0000
90.2594	148.0000
90.2788	164.0000
90.2983	161.0000
90.3178	161.0000
90.3372	151.0000
90.3567	162.0000
90.3761	166.0000
90.3956	144.0000
90.4150	160.0000
90.4345	178.0000
90.4540	163.0000
90.4734	176.0000
90.4929	170.0000
90.5123	158.0000
90.5318	164.0000
90.5512	177.0000
90.5707	176.0000
90.5902	176.0000
90.6096	180.0000
90.6291	170.0000
90.6485	165.0000
90.6680	192.0000
90.6874	200.0000
90.7069	188.0000
90.7264	190.0000
90.7458	195.0000
90.7653	167.0000
90.7847	198.0000
90.8042	178.0000
90.8236	195.0000
90.8431	208.0000
90.8626	210.0000
90.8820	193.0000
90.9015	176.0000
90.9209	194.0000
90.9404	192.0000
90.9598	182.0000
90.9793	203.0000
90.9988	198.0000
91.0182	224.0000
91.0377	161.0000
91.0571	230.0000
91.0766	171.0000
91.0960	219.0000
91.1155	201.0000
91.1350	190.0000
91.1544	209.0000
91.1739	210.0000
91.1933	148.0000
91.2128	196.0000
91.2322	203.0000
91.2517	206.0000
91.2711	179.0000
91.2906	198.0000
91.3101	181.0000
91.3295	171.0000
91.3490	182.0000
91.3684	178.0000
91.3879	163.0000
91.4073	166.0000
91.4268	151.0000
91.4463	153.0000
91.4657	152.0000
91.4852	158.0000
91.5046	149.0000
91.5241	156.0000
91.5435	178.0000
91.5630	162.0000
91.5825	152.0000
91.6019	159.0000
91.6214	174.0000
91.6408	143.0000
91.6603	148.0000
91.6797	149.0000
91.6992	114.0000
91.7187	162.0000
91.7381	147.0000
91.7576	147.0000
91.7770	145.0000
91.7965	157.0000
91.8159	140.0000
91.8354	154.0000
91.8549	157.0000
91.8743	134.0000
91.8938	160.0000
91.9132	142.0000
91.9327	149.0000
91.9521	131.0000
91.9716	155.0000
91.9911	131.0000
92.0105	149.0000
92.0300	128.0000
92.0494	142.0000
92.0689	132.0000
92.0883	148.0000
92.1078	158.0000
92.1273	158.0000
92.1467	135.0000
92.1662	130.0000
92.1856	139.0000
92.2051	131.0000
92.2245	154.0000
92.2440	137.0000
92.2635	157.0000
92.2829	130.0000
92.3024	154.0000
92.3218	156.0000
92.3413	162.0000
92.3607	158.0000
92.3802	126.0000
92.3997	155.0000
92.4191	142.0000
92.4386	159.0000
92.4580	139.0000
92.4775	139.0000
92.4969	167.0000
92.5164	157.0000
92.5359	149.0000
92.5553	154.0000
92.5748	134.0000
92.5942	124.0000
92.6137	157.0000
92.6331	151.0000
92.6526	132.0000
92.6721	144.0000
92.6915	138.0000
92.7110	139.0000
92.7304	141.0000
92.7499	138.0000
92.7693	145.0000
92.7888	136.0000
92.8083	132.0000
92.8277	144.0000
92.8472	145.0000
92.8666	151.0000
92.8861	136.0000
92.9055	162.0000
92.9250	148.0000
92.9445	143.0000
92.9639	126.0000
92.9834	150.0000
93.0028	126.0000
93.0223	154.0000
93.0417	125.0000
93.0612	116.0000
93.0807	141.0000
93.1001	150.0000
93.1196	148.0000
93.1390	140.0000
93.1585	140.0000
93.1779	149.0000
93.1974	145.0000
93.2169	115.0000
93.2363	137.0000
93.2558	128.0000
93.2752	160.0000
93.2947	128.0000
93.3141	174.0000
93.3336	151.0000
93.3531	132.0000
93.3725	141.0000
93.3920	132.0000
93.4114	153.0000
93.4309	136.0000
93.4503	150.0000
93.4698	150.0000
93.4893	146.0000
93.5087	129.0000
93.5282	155.0000
93.5476	142.0000
93.5671	147.0000
93.5865	147.0000
93.6060	148.0000
93.6255	171.0000
93.6449	148.0000
93.6644	149.0000
93.6838	149.0000
93.7033	146.0000
93.7227	123.0000
93.7422	151.0000
93.7617	147.0000
93.7811	157.0000
93.8006	162.0000
93.8200	153.0000
93.8395	144.0000
93.8589	154.0000
93.8784	172.0000
93.8979	160.0000
93.9173	151.0000
93.9368	149.0000
93.9562	160.0000
93.9757	138.0000
93.9951	162.0000
94.0146	157.0000
94.0340	159.0000
94.0535	164.0000
94.0730	125.0000
94.0924	148.0000
94.1119	170.0000
94.1313	180.0000
94.1508	165.0000
94.1702	142.0000
94.1897	158.0000
94.2092	145.0000
94.2286	141.0000
94.2481	156.0000
94.2675	164.0000
94.2870	176.0000
94.3064	130.0000
94.3259	167.0000
94.3454	162.0000
94.3648	162.0000
94.3843	142.0000
94.4037	137.0000
94.4232	138.0000
94.4426	151.0000
94.4621	152.0000
94.4816	159.0000
94.5010	157.0000
94.5205	145.0000
94.5399	140.0000
94.5594	142.0000
94.5788	149.0000
94.5983	142.0000
94.6178	172.0000
94.6372	160.0000
94.6567	139.0000
94.6761	147.0000
94.6956	154.0000
94.7150	141.0000
94.7345	140.0000
94.7540	144.0000
94.7734	136.0000
94.7929	128.0000
94.8123	127.0000
94.8318	162.0000
94.8512	155.0000
94.8707	140.0000
94.8902	154.0000
94.9096	146.0000
94.9291	140.0000
94.9485	152.0000
94.9680	157.0000
94.9874	136.0000
95.0069	147.0000
95.0264	152.0000
95.0458	144.0000
95.0653	148.0000
95.0847	152.0000
95.1042	120.0000
95.1236	149.0000
95.1431	149.0000
95.1626	153.0000
95.1820	127.0000
95.2015	157.0000
95.2209	167.0000
95.2404	155.0000
95.2598	138.0000
95.2793	147.0000
95.2988	156.0000
95.3182	128.0000
95.3377	151.0000
95.3571	151.0000
95.3766	174.0000
95.3960	169.0000
95.4155	153.0000
95.4350	142.0000
95.4544	157.0000
95.4739	138.0000
95.4933	138.0000
95.5128	162.0000
95.5322	143.0000
95.5517	149.0000
95.5712	158.0000
95.5906	156.0000
95.6101	156.0000
95.6295	159.0000
95.6490	141.0000
95.6684	134.0000
95.6879	168.0000
95.7074	176.0000
95.7268	155.0000
95.7463	143.0000
95.7657	164.0000
95.7852	149.0000
95.8046	141.0000
95.8241	140.0000
95.8436	162.0000
95.8630	156.0000
95.8825	139.0000
95.9019	151.0000
95.9214	146.0000
95.9408	159.0000
95.9603	166.0000
95.9798	147.0000
95.9992	134.0000
96.0187	142.0000
96.0381	133.0000
96.0576	153.0000
96.0770	130.0000
96.0965	163.0000
96.1160	149.0000
96.1354	132.0000
96.1549	158.0000
96.1743	161.0000
96.1938	151.0000
96.2132	164.0000
96.2327	147.0000
96.2522	144.0000
96.2716	168.0000
96.2911	148.0000
96.3105	175.0000
96.3300	137.0000
96.3494	151.0000
96.3689	160.0000
96.3884	166.0000
96.4078	146.0000
96.4273	162.0000
96.4467	141.0000
96.4662	128.0000
96.4856	153.0000
96.5051	155.0000
96.5246	144.0000
96.5440	151.0000
96.5635	168.0000
96.5829	141.0000
96.6024	153.0000
96.6218	169.0000
96.6413	130.0000
96.6608	156.0000
96.6802	131.0000
96.6997	160.0000
96.7191	149.0000
96.7386	155.0000
96.7580	155.0000
96.7775	125.0000
96.7969	160.0000
96.8164	167.0000
96.8359	151.0000
96.8553	158.0000
96.8748	150.0000
96.8942	160.0000
96.9137	146.0000
96.9331	128.0000
96.9526	127.0000
96.9721	157.0000
96.9915	144.0000
97.0110	155.0000
97.0304	150.0000
97.0499	152.0000
97.0693	140.0000
97.0888	134.0000
97.1083	148.0000
97.1277	140.0000
97.1472	144.0000
97.1666	146.0000
97.1861	127.0000
97.2055	130.0000
97.2250	148.0000
97.2445	139.0000
97.2639	145.0000
97.2834	146.0000
97.3028	148.0000
97.3223	147.0000
97.3417	136.0000
97.3612	137.0000
97.3807	171.0000
97.4001	144.0000
97.4196	158.0000
97.4390	132.0000
97.4585	142.0000
97.4779	148.0000
97.4974	165.0000
97.5169	130.0000
97.5363	142.0000
97.5558	139.0000
97.5752	164.0000
97.5947	147.0000
97.6141	134.0000
97.6336	160.0000
97.6531	149.0000
97.6725	150.0000
97.6920	140.0000
97.7114	135.0000
97.7309	173.0000
97.7503	136.0000
97.7698	148.0000
97.7893	147.0000
97.8087	155.0000
97.8282	140.0000
97.8476	142.0000
97.8671	131.0000
97.8865	146.0000
97.9060	147.0000
97.9255	164.0000
97.9449	144.0000
97.9644	152.0000
97.9838	127.0000
98.0033	149.0000
98.0227	156.0000
98.0422	155.0000
98.0617	146.0000
98.0811	149.0000
98.1006	149.0000
98.1200	163.0000
98.1395	152.0000
98.1589	139.0000
98.1784	146.0000
98.1979	146.0000
98.2173	138.0000
98.2368	154.0000
98.2562	137.0000
98.2757	152.0000
98.2951	154.0000
98.3146	125.0000
98.3341	121.0000
98.3535	146.0000
98.3730	169.0000
98.3924	152.0000
98.4119	149.0000
98.4313	146.0000
98.4508	165.0000
98.4703	147.0000
98.4897	149.0000
98.5092	135.0000
98.5286	160.0000
98.5481	191.0000
98.5675	163.0000
98.5870	155.0000
98.6065	153.0000
98.6259	155.0000
98.6454	164.0000
98.6648	153.0000
98.6843	162.0000
98.7037	145.0000
98.7232	146.0000
98.7427	158.0000
98.7621	119.0000
98.7816	129.0000
98.8010	141.0000
98.8205	141.0000
98.8399	126.0000
98.8594	168.0000
98.8789	144.0000
98.8983	128.0000
98.9178	130.0000
98.9372	134.0000
98.9567	136.0000
98.9761	133.0000
98.9956	140.0000
99.0151	124.0000
99.0345	136.0000
99.0540	144.0000
99.0734	133.0000
99.0929	145.0000
99.1123	149.0000
99.1318	135.0000
99.1513	139.0000
99.1707	149.0000
99.1902	152.0000
99.2096	140.0000
99.2291	156.0000
99.2485	154.0000
99.2680	153.0000
99.2875	153.0000
99.3069	141.0000
99.3264	149.0000
99.3458	143.0000
99.3653	143.0000
99.3847	127.0000
99.4042	139.0000
99.4237	155.0000
99.4431	135.0000
99.4626	124.0000
99.4820	169.0000
99.5015	159.0000
99.5209	135.0000
99.5404	143.0000
99.5598	133.0000
99.5793	146.0000
99.5988	166.0000
99.6182	130.0000
99.6377	133.0000
99.6571	169.0000
99.6766	146.0000
99.6960	151.0000
99.7155	150.0000
99.7350	142.0000
99.7544	147.0000
99.7739	128.0000
99.7933	150.0000
99.8128	138.0000
99.8322	138.0000
99.8517	137.0000
99.8712	145.0000
99.8906	145.0000
99.9101	153.0000
99.9295	138.0000
99.9490	162.0000
99.9684	146.0000
99.9879	140.0000
100.0074	140.0000
