30.0009	219.0000
30.0204	237.0000
30.0398	240.0000
30.0593	208.0000
30.0787	224.0000
30.0982	202.0000
30.1177	227.0000
30.1371	232.0000
30.1566	215.0000
30.1760	248.0000
30.1955	204.0000
30.2149	258.0000
30.2344	235.0000
30.2539	216.0000
30.2733	243.0000
30.2928	219.0000
30.3122	242.0000
30.3317	249.0000
30.3511	236.0000
30.3706	239.0000
30.3901	237.0000
30.4095	241.0000
30.4290	218.0000
30.4484	248.0000
30.4679	218.0000
30.4873	226.0000
30.5068	264.0000
30.5263	253.0000
30.5457	218.0000
30.5652	227.0000
30.5846	217.0000
30.6041	226.0000
30.6235	239.0000
30.6430	224.0000
30.6625	219.0000
30.6819	219.0000
30.7014	233.0000
30.7208	213.0000
30.7403	203.0000
30.7597	203.0000
30.7792	224.0000
30.7987	243.0000
30.8181	210.0000
30.8376	221.0000
30.8570	234.0000
30.8765	221.0000
30.8959	232.0000
30.9154	216.0000
30.9349	239.0000
30.9543	210.0000
30.9738	245.0000
30.9932	211.0000
31.0127	206.0000
31.0321	237.0000
31.0516	255.0000
31.0711	214.0000
31.0905	222.0000
31.1100	220.0000
31.1294	233.0000
31.1489	242.0000
31.1683	204.0000
31.1878	231.0000
31.2073	224.0000
31.2267	241.0000
31.2462	229.0000
31.2656	229.0000
31.2851	241.0000
31.3045	214.0000
31.3240	221.0000
31.3435	210.0000
31.3629	237.0000
31.3824	217.0000
31.4018	234.0000
31.4213	230.0000
31.4407	214.0000
31.4602	224.0000
31.4797	220.0000
31.4991	233.0000
31.5186	228.0000
31.5380	227.0000
31.5575	244.0000
31.5769	212.0000
31.5964	203.0000
31.6159	230.0000
31.6353	216.0000
31.6548	236.0000
31.6742	217.0000
31.6937	231.0000
31.7131	235.0000
31.7326	228.0000
31.7521	217.0000
31.7715	202.0000
31.7910	257.0000
31.8104	217.0000
31.8299	213.0000
31.8493	227.0000
31.8688	243.0000
31.8883	228.0000
31.9077	245.0000
31.9272	195.0000
31.9466	223.0000
31.9661	225.0000
31.9855	229.0000
32.0050	217.0000
32.0245	223.0000
32.0439	224.0000
32.0634	257.0000
32.0828	223.0000
32.1023	208.0000
32.1217	213.0000
32.1412	219.0000
32.1607	221.0000
32.1801	217.0000
32.1996	239.0000
32.2190	234.0000
32.2385	215.0000
32.2579	229.0000
32.2774	229.0000
32.2969	227.0000
32.3163	213.0000
32.3358	242.0000
32.3552	246.0000
32.3747	213.0000
32.3941	224.0000
32.4136	213.0000
32.4331	228.0000
32.4525	235.0000
32.4720	232.0000
32.4914	223.0000
32.5109	244.0000
32.5303	223.0000
32.5498	222.0000
32.5693	205.0000
32.5887	213.0000
32.6082	216.0000
32.6276	226.0000
32.6471	218.0000
32.6665	228.0000
32.6860	204.0000
32.7055	217.0000
32.7249	208.0000
32.7444	225.0000
32.7638	257.0000
32.7833	259.0000
32.8027	191.0000
32.8222	226.0000
32.8416	236.0000
32.8611	228.0000
32.8806	202.0000
32.9000	216.0000
32.9195	216.0000
32.9389	229.0000
32.9584	217.0000
32.9778	225.0000
32.9973	237.0000
33.0168	242.0000
33.0362	240.0000
33.0557	240.0000
33.0751	219.0000
33.0946	237.0000
33.1140	207.0000
33.1335	214.0000
33.1530	236.0000
33.1724	223.0000
33.1919	221.0000
33.2113	239.0000
33.2308	232.0000
33.2502	224.0000
33.2697	229.0000
33.2892	241.0000
33.3086	226.0000
33.3281	205.0000
33.3475	216.0000
33.3670	215.0000
33.3864	202.0000
33.4059	216.0000
33.4254	244.0000
33.4448	251.0000
33.4643	254.0000
33.4837	233.0000
33.5032	215.0000
33.5226	218.0000
33.5421	222.0000
33.5616	238.0000
33.5810	231.0000
33.6005	230.0000
33.6199	215.0000
33.6394	230.0000
33.6588	206.0000
33.6783	215.0000
33.6978	222.0000
33.7172	242.0000
33.7367	232.0000
33.7561	225.0000
33.7756	242.0000
33.7950	211.0000
33.8145	249.0000
33.8340	256.0000
33.8534	223.0000
33.8729	203.0000
33.8923	257.0000
33.9118	245.0000
33.9312	225.0000
33.9507	234.0000
33.9702	239.0000
33.9896	238.0000
34.0091	220.0000
34.0285	255.0000
34.0480	227.0000
34.0674	226.0000
34.0869	239.0000
34.1064	216.0000
34.1258	260.0000
34.1453	229.0000
34.1647	251.0000
34.1842	243.0000
34.2036	223.0000
34.2231	216.0000
34.2426	244.0000
34.2620	214.0000
34.2815	212.0000
34.3009	234.0000
34.3204	229.0000
34.3398	235.0000
34.3593	222.0000
34.3788	247.0000
34.3982	244.0000
34.4177	231.0000
34.4371	223.0000
34.4566	239.0000
34.4760	232.0000
34.4955	216.0000
34.5150	239.0000
34.5344	236.0000
34.5539	245.0000
34.5733	251.0000
34.5928	198.0000
34.6122	255.0000
34.6317	260.0000
34.6512	249.0000
34.6706	228.0000
34.6901	206.0000
34.7095	229.0000
34.7290	238.0000
34.7484	229.0000
34.7679	217.0000
34.7874	262.0000
34.8068	214.0000
34.8263	222.0000
34.8457	235.0000
34.8652	257.0000
34.8846	236.0000
34.9041	203.0000
34.9236	206.0000
34.9430	213.0000
34.9625	236.0000
34.9819	250.0000
35.0014	240.0000
35.0208	224.0000
35.0403	232.0000
35.0598	236.0000
35.0792	253.0000
35.0987	239.0000
35.1181	267.0000
35.1376	242.0000
35.1570	245.0000
35.1765	216.0000
35.1960	267.0000
35.2154	254.0000
35.2349	245.0000
35.2543	238.0000
35.2738	215.0000
35.2932	207.0000
35.3127	232.0000
35.3322	233.0000
35.3516	211.0000
35.3711	242.0000
35.3905	231.0000
35.4100	236.0000
35.4294	231.0000
35.4489	218.0000
35.4684	234.0000
35.4878	252.0000
35.5073	259.0000
35.5267	261.0000
35.5462	246.0000
35.5656	252.0000
35.5851	219.0000
35.6045	256.0000
35.6240	240.0000
35.6435	242.0000
35.6629	239.0000
35.6824	234.0000
35.7018	241.0000
35.7213	253.0000
35.7407	242.0000
35.7602	237.0000
35.7797	252.0000
35.7991	250.0000
35.8186	260.0000
35.8380	247.0000
35.8575	255.0000
35.8769	255.0000
35.8964	240.0000
35.9159	233.0000
35.9353	254.0000
35.9548	241.0000
35.9742	209.0000
35.9937	247.0000
36.0131	231.0000
36.0326	223.0000
36.0521	219.0000
36.0715	217.0000
36.0910	243.0000
36.1104	225.0000
36.1299	242.0000
36.1493	254.0000
36.1688	266.0000
36.1883	230.0000
36.2077	240.0000
36.2272	264.0000
36.2466	249.0000
36.2661	244.0000
36.2855	223.0000
36.3050	234.0000
36.3245	263.0000
36.3439	266.0000
36.3634	222.0000
36.3828	239.0000
36.4023	259.0000
36.4217	211.0000
36.4412	248.0000
36.4607	241.0000
36.4801	240.0000
36.4996	247.0000
36.5190	249.0000
36.5385	255.0000
36.5579	238.0000
36.5774	229.0000
36.5969	259.0000
36.6163	263.0000
36.6358	233.0000
36.6552	247.0000
36.6747	246.0000
36.6941	261.0000
36.7136	253.0000
36.7331	248.0000
36.7525	230.0000
36.7720	269.0000
36.7914	255.0000
36.8109	235.0000
36.8303	275.0000
36.8498	230.0000
36.8693	231.0000
36.8887	211.0000
36.9082	263.0000
36.9276	254.0000
36.9471	255.0000
36.9665	258.0000
36.9860	244.0000
37.0055	238.0000
37.0249	242.0000
37.0444	208.0000
37.0638	261.0000
37.0833	260.0000
37.1027	228.0000
37.1222	266.0000
37.1417	261.0000
37.1611	219.0000
37.1806	255.0000
37.2000	270.0000
37.2195	254.0000
37.2389	232.0000
37.2584	247.0000
37.2779	229.0000
37.2973	238.0000
37.3168	213.0000
37.3362	256.0000
37.3557	242.0000
37.3751	247.0000
37.3946	241.0000
37.4141	241.0000
37.4335	255.0000
37.4530	264.0000
37.4724	238.0000
37.4919	257.0000
37.5113	236.0000
37.5308	254.0000
37.5503	230.0000
37.5697	233.0000
37.5892	220.0000
37.6086	239.0000
37.6281	263.0000
37.6475	219.0000
37.6670	223.0000
37.6865	264.0000
37.7059	248.0000
37.7254	239.0000
37.7448	265.0000
37.7643	237.0000
37.7837	241.0000
37.8032	246.0000
37.8227	244.0000
37.8421	260.0000
37.8616	260.0000
37.8810	276.0000
37.9005	243.0000
37.9199	242.0000
37.9394	270.0000
37.9589	258.0000
37.9783	254.0000
37.9978	224.0000
38.0172	254.0000
38.0367	265.0000
38.0561	263.0000
38.0756	287.0000
38.0951	268.0000
38.1145	281.0000
38.1340	244.0000
38.1534	250.0000
38.1729	260.0000
38.1923	288.0000
38.2118	260.0000
38.2313	255.0000
38.2507	223.0000
38.2702	248.0000
38.2896	234.0000
38.3091	248.0000
38.3285	257.0000
38.3480	238.0000
38.3675	287.0000
38.3869	261.0000
38.4064	265.0000
38.4258	250.0000
38.4453	250.0000
38.4647	260.0000
38.4842	254.0000
38.5036	263.0000
38.5231	242.0000
38.5426	262.0000
38.5620	255.0000
38.5815	263.0000
38.6009	248.0000
38.6204	235.0000
38.6398	240.0000
38.6593	248.0000
38.6788	260.0000
38.6982	272.0000
38.7177	279.0000
38.7371	245.0000
38.7566	259.0000
38.7760	276.0000
38.7955	247.0000
38.8150	234.0000
38.8344	264.0000
38.8539	276.0000
38.8733	263.0000
38.8928	270.0000
38.9122	275.0000
38.9317	300.0000
38.9512	296.0000
38.9706	274.0000
38.9901	316.0000
39.0095	267.0000
39.0290	258.0000
39.0484	251.0000
39.0679	265.0000
39.0874	241.0000
39.1068	270.0000
39.1263	270.0000
39.1457	259.0000
39.1652	225.0000
39.1846	257.0000
39.2041	290.0000
39.2236	237.0000
39.2430	255.0000
39.2625	254.0000
39.2819	298.0000
39.3014	258.0000
39.3208	262.0000
39.3403	255.0000
39.3598	233.0000
39.3792	278.0000
39.3987	268.0000
39.4181	261.0000
39.4376	255.0000
39.4570	290.0000
39.4765	258.0000
39.4960	251.0000
39.5154	270.0000
39.5349	271.0000
39.5543	253.0000
39.5738	270.0000
39.5932	270.0000
39.6127	285.0000
39.6322	249.0000
39.6516	238.0000
39.6711	260.0000
39.6905	257.0000
39.7100	255.0000
39.7294	234.0000
39.7489	288.0000
39.7684	254.0000
39.7878	258.0000
39.8073	276.0000
39.8267	279.0000
39.8462	264.0000
39.8656	280.0000
39.8851	277.0000
39.9046	271.0000
39.9240	260.0000
39.9435	261.0000
39.9629	252.0000
39.9824	280.0000
40.0018	257.0000
40.0213	223.0000
40.0408	278.0000
40.0602	271.0000
40.0797	277.0000
40.0991	249.0000
40.1186	266.0000
40.1380	241.0000
40.1575	288.0000
40.1770	309.0000
40.1964	262.0000
40.2159	264.0000
40.2353	272.0000
40.2548	260.0000
40.2742	282.0000
40.2937	267.0000
40.3132	251.0000
40.3326	255.0000
40.3521	212.0000
40.3715	253.0000
40.3910	266.0000
40.4104	236.0000
40.4299	261.0000
40.4494	248.0000
40.4688	258.0000
40.4883	276.0000
40.5077	267.0000
40.5272	241.0000
40.5466	262.0000
40.5661	260.0000
40.5856	272.0000
40.6050	251.0000
40.6245	249.0000
40.6439	295.0000
40.6634	287.0000
40.6828	266.0000
40.7023	294.0000
40.7218	275.0000
40.7412	269.0000
40.7607	270.0000
40.7801	250.0000
40.7996	244.0000
40.8190	246.0000
40.8385	284.0000
40.8580	254.0000
40.8774	268.0000
40.8969	271.0000
40.9163	259.0000
40.9358	259.0000
40.9552	252.0000
40.9747	255.0000
40.9942	267.0000
41.0136	258.0000
41.0331	222.0000
41.0525	266.0000
41.0720	281.0000
41.0914	253.0000
41.1109	242.0000
41.1304	306.0000
41.1498	284.0000
41.1693	306.0000
41.1887	265.0000
41.2082	253.0000
41.2276	260.0000
41.2471	254.0000
41.2665	312.0000
41.2860	286.0000
41.3055	283.0000
41.3249	269.0000
41.3444	239.0000
41.3638	271.0000
41.3833	290.0000
41.4027	263.0000
41.4222	247.0000
41.4417	251.0000
41.4611	234.0000
41.4806	289.0000
41.5000	290.0000
41.5195	261.0000
41.5389	284.0000
41.5584	266.0000
41.5779	269.0000
41.5973	270.0000
41.6168	279.0000
41.6362	259.0000
41.6557	281.0000
41.6751	268.0000
41.6946	246.0000
41.7141	263.0000
41.7335	272.0000
41.7530	280.0000
41.7724	287.0000
41.7919	263.0000
41.8113	283.0000
41.8308	246.0000
41.8503	267.0000
41.8697	273.0000
41.8892	289.0000
41.9086	281.0000
41.9281	256.0000
41.9475	280.0000
41.9670	263.0000
41.9865	268.0000
42.0059	291.0000
42.0254	241.0000
42.0448	260.0000
42.0643	286.0000
42.0837	260.0000
42.1032	267.0000
42.1227	253.0000
42.1421	296.0000
42.1616	261.0000
42.1810	269.0000
42.2005	268.0000
42.2199	291.0000
42.2394	286.0000
42.2589	277.0000
42.2783	271.0000
42.2978	296.0000
42.3172	281.0000
42.3367	256.0000
42.3561	265.0000
42.3756	257.0000
42.3951	290.0000
42.4145	272.0000
42.4340	293.0000
42.4534	278.0000
42.4729	280.0000
42.4923	263.0000
42.5118	278.0000
42.5313	257.0000
42.5507	278.0000
42.5702	318.0000
42.5896	317.0000
42.6091	296.0000
42.6285	281.0000
42.6480	333.0000
42.6675	300.0000
42.6869	298.0000
42.7064	311.0000
42.7258	336.0000
42.7453	338.0000
42.7647	324.0000
42.7842	281.0000
42.8037	331.0000
42.8231	313.0000
42.8426	275.0000
42.8620	289.0000
42.8815	335.0000
42.9009	266.0000
42.9204	323.0000
42.9399	275.0000
42.9593	311.0000
42.9788	281.0000
42.9982	297.0000
43.0177	292.0000
43.0371	335.0000
43.0566	304.0000
43.0761	302.0000
43.0955	268.0000
43.1150	283.0000
43.1344	281.0000
43.1539	346.0000
43.1733	333.0000
43.1928	319.0000
43.2123	309.0000
43.2317	326.0000
43.2512	307.0000
43.2706	313.0000
43.2901	312.0000
43.3095	317.0000
43.3290	351.0000
43.3485	348.0000
43.3679	357.0000
43.3874	358.0000
43.4068	374.0000
43.4263	415.0000
43.4457	392.0000
43.4652	382.0000
43.4847	429.0000
43.5041	460.0000
43.5236	455.0000
43.5430	483.0000
43.5625	498.0000
43.5819	517.0000
43.6014	540.0000
43.6209	586.0000
43.6403	619.0000
43.6598	651.0000
43.6792	685.0000
43.6987	780.0000
43.7181	763.0000
43.7376	865.0000
43.7571	1011.0000
43.7765	995.0000
43.7960	1074.0000
43.8154	1076.0000
43.8349	1117.0000
43.8543	1200.0000
43.8738	1175.0000
43.8933	1201.0000
43.9127	1127.0000
43.9322	1100.0000
43.9516	1036.0000
43.9711	1026.0000
43.9905	946.0000
44.0100	943.0000
44.0295	859.0000
44.0489	846.0000
44.0684	738.0000
44.0878	677.0000
44.1073	670.0000
44.1267	619.0000
44.1462	614.0000
44.1656	572.0000
44.1851	528.0000
44.2046	508.0000
44.2240	514.0000
44.2435	475.0000
44.2629	410.0000
44.2824	378.0000
44.3018	425.0000
44.3213	405.0000
44.3408	389.0000
44.3602	395.0000
44.3797	408.0000
44.3991	376.0000
44.4186	380.0000
44.4380	337.0000
44.4575	365.0000
44.4770	355.0000
44.4964	342.0000
44.5159	309.0000
44.5353	329.0000
44.5548	325.0000
44.5742	330.0000
44.5937	307.0000
44.6132	306.0000
44.6326	318.0000
44.6521	310.0000
44.6715	317.0000
44.6910	264.0000
44.7104	281.0000
44.7299	272.0000
44.7494	284.0000
44.7688	312.0000
44.7883	292.0000
44.8077	314.0000
44.8272	321.0000
44.8466	326.0000
44.8661	297.0000
44.8856	275.0000
44.9050	312.0000
44.9245	280.0000
44.9439	265.0000
44.9634	310.0000
44.9828	289.0000
45.0023	298.0000
45.0218	292.0000
45.0412	308.0000
45.0607	279.0000
45.0801	282.0000
45.0996	263.0000
45.1190	259.0000
45.1385	292.0000
45.1580	254.0000
45.1774	263.0000
45.1969	294.0000
45.2163	273.0000
45.2358	279.0000
45.2552	290.0000
45.2747	289.0000
45.2942	303.0000
45.3136	293.0000
45.3331	268.0000
45.3525	288.0000
45.3720	301.0000
45.3914	298.0000
45.4109	295.0000
45.4304	284.0000
45.4498	298.0000
45.4693	271.0000
45.4887	265.0000
45.5082	265.0000
45.5276	283.0000
45.5471	302.0000
45.5666	244.0000
45.5860	271.0000
45.6055	296.0000
45.6249	277.0000
45.6444	303.0000
45.6638	269.0000
45.6833	272.0000
45.7028	283.0000
45.7222	316.0000
45.7417	269.0000
45.7611	310.0000
45.7806	244.0000
45.8000	284.0000
45.8195	280.0000
45.8390	293.0000
45.8584	275.0000
45.8779	280.0000
45.8973	295.0000
45.9168	261.0000
45.9362	251.0000
45.9557	257.0000
45.9752	253.0000
45.9946	271.0000
46.0141	270.0000
46.0335	277.0000
46.0530	273.0000
46.0724	277.0000
46.0919	285.0000
46.1114	283.0000
46.1308	290.0000
46.1503	273.0000
46.1697	282.0000
46.1892	261.0000
46.2086	267.0000
46.2281	280.0000
46.2476	268.0000
46.2670	241.0000
46.2865	258.0000
46.3059	267.0000
46.3254	273.0000
46.3448	291.0000
46.3643	270.0000
46.3838	279.0000
46.4032	251.0000
46.4227	258.0000
46.4421	242.0000
46.4616	266.0000
46.4810	250.0000
46.5005	270.0000
46.5200	288.0000
46.5394	296.0000
46.5589	270.0000
46.5783	273.0000
46.5978	271.0000
46.6172	311.0000
46.6367	304.0000
46.6562	299.0000
46.6756	276.0000
46.6951	293.0000
46.7145	326.0000
46.7340	325.0000
46.7534	279.0000
46.7729	306.0000
46.7924	273.0000
46.8118	289.0000
46.8313	293.0000
46.8507	281.0000
46.8702	318.0000
46.8896	289.0000
46.9091	298.0000
46.9285	276.0000
46.9480	282.0000
46.9675	294.0000
46.9869	317.0000
47.0064	309.0000
47.0258	269.0000
47.0453	311.0000
47.0647	298.0000
47.0842	276.0000
47.1037	296.0000
47.1231	318.0000
47.1426	273.0000
47.1620	303.0000
47.1815	265.0000
47.2009	284.0000
47.2204	306.0000
47.2399	285.0000
47.2593	290.0000
47.2788	256.0000
47.2982	317.0000
47.3177	270.0000
47.3371	300.0000
47.3566	269.0000
47.3761	251.0000
47.3955	296.0000
47.4150	275.0000
47.4344	296.0000
47.4539	315.0000
47.4733	265.0000
47.4928	269.0000
47.5123	249.0000
47.5317	265.0000
47.5512	269.0000
47.5706	285.0000
47.5901	267.0000
47.6095	285.0000
47.6290	279.0000
47.6485	295.0000
47.6679	265.0000
47.6874	310.0000
47.7068	262.0000
47.7263	282.0000
47.7457	257.0000
47.7652	270.0000
47.7847	273.0000
47.8041	258.0000
47.8236	280.0000
47.8430	295.0000
47.8625	283.0000
47.8819	308.0000
47.9014	278.0000
47.9209	295.0000
47.9403	287.0000
47.9598	288.0000
47.9792	269.0000
47.9987	324.0000
48.0181	256.0000
48.0376	291.0000
48.0571	300.0000
48.0765	299.0000
48.0960	333.0000
48.1154	313.0000
48.1349	308.0000
48.1543	309.0000
48.1738	305.0000
48.1933	302.0000
48.2127	313.0000
48.2322	303.0000
48.2516	282.0000
48.2711	299.0000
48.2905	281.0000
48.3100	286.0000
48.3295	307.0000
48.3489	239.0000
48.3684	322.0000
48.3878	277.0000
48.4073	276.0000
48.4267	264.0000
48.4462	289.0000
48.4657	269.0000
48.4851	268.0000
48.5046	286.0000
48.5240	307.0000
48.5435	282.0000
48.5629	266.0000
48.5824	271.0000
48.6019	301.0000
48.6213	283.0000
48.6408	246.0000
48.6602	278.0000
48.6797	253.0000
48.6991	272.0000
48.7186	264.0000
48.7381	268.0000
48.7575	285.0000
48.7770	265.0000
48.7964	261.0000
48.8159	276.0000
48.8353	259.0000
48.8548	265.0000
48.8743	279.0000
48.8937	266.0000
48.9132	280.0000
48.9326	302.0000
48.9521	275.0000
48.9715	279.0000
48.9910	257.0000
49.0105	274.0000
49.0299	251.0000
49.0494	266.0000
49.0688	259.0000
49.0883	311.0000
49.1077	250.0000
49.1272	276.0000
49.1467	243.0000
49.1661	277.0000
49.1856	274.0000
49.2050	273.0000
49.2245	260.0000
49.2439	275.0000
49.2634	271.0000
49.2829	282.0000
49.3023	285.0000
49.3218	263.0000
49.3412	267.0000
49.3607	304.0000
49.3801	291.0000
49.3996	289.0000
49.4191	302.0000
49.4385	265.0000
49.4580	287.0000
49.4774	269.0000
49.4969	287.0000
49.5163	302.0000
49.5358	269.0000
49.5553	288.0000
49.5747	282.0000
49.5942	239.0000
49.6136	291.0000
49.6331	274.0000
49.6525	238.0000
49.6720	277.0000
49.6914	282.0000
49.7109	317.0000
49.7304	298.0000
49.7498	290.0000
49.7693	295.0000
49.7887	291.0000
49.8082	267.0000
49.8276	285.0000
49.8471	315.0000
49.8666	284.0000
49.8860	297.0000
49.9055	289.0000
49.9249	303.0000
49.9444	328.0000
49.9638	304.0000
49.9833	315.0000
50.0028	321.0000
50.0222	297.0000
50.0417	282.0000
50.0611	343.0000
50.0806	301.0000
50.1000	329.0000
50.1195	335.0000
50.1390	299.0000
50.1584	314.0000
50.1779	314.0000
50.1973	317.0000
50.2168	303.0000
50.2362	313.0000
50.2557	294.0000
50.2752	306.0000
50.2946	329.0000
50.3141	349.0000
50.3335	319.0000
50.3530	334.0000
50.3724	311.0000
50.3919	338.0000
50.4114	353.0000
50.4308	344.0000
50.4503	349.0000
50.4697	352.0000
50.4892	382.0000
50.5086	360.0000
50.5281	388.0000
50.5476	390.0000
50.5670	402.0000
50.5865	426.0000
50.6059	432.0000
50.6254	442.0000
50.6448	471.0000
50.6643	494.0000
50.6838	463.0000
50.7032	453.0000
50.7227	475.0000
50.7421	524.0000
50.7616	549.0000
50.7810	536.0000
50.8005	592.0000
50.8200	573.0000
50.8394	662.0000
50.8589	625.0000
50.8783	637.0000
50.8978	636.0000
50.9172	645.0000
50.9367	633.0000
50.9562	658.0000
50.9756	699.0000
50.9951	665.0000
51.0145	644.0000
51.0340	641.0000
51.0534	640.0000
51.0729	641.0000
51.0924	616.0000
51.1118	537.0000
51.1313	616.0000
51.1507	547.0000
51.1702	551.0000
51.1896	542.0000
51.2091	511.0000
51.2286	546.0000
51.2480	465.0000
51.2675	418.0000
51.2869	450.0000
51.3064	457.0000
51.3258	440.0000
51.3453	363.0000
51.3648	398.0000
51.3842	422.0000
51.4037	358.0000
51.4231	385.0000
51.4426	377.0000
51.4620	407.0000
51.4815	350.0000
51.5010	364.0000
51.5204	330.0000
51.5399	329.0000
51.5593	350.0000
51.5788	322.0000
51.5982	329.0000
51.6177	314.0000
51.6372	318.0000
51.6566	327.0000
51.6761	310.0000
51.6955	288.0000
51.7150	320.0000
51.7344	303.0000
51.7539	307.0000
51.7734	302.0000
51.7928	311.0000
51.8123	305.0000
51.8317	302.0000
51.8512	281.0000
51.8706	298.0000
51.8901	284.0000
51.9096	295.0000
51.9290	318.0000
51.9485	323.0000
51.9679	295.0000
51.9874	266.0000
52.0068	285.0000
52.0263	302.0000
52.0458	284.0000
52.0652	258.0000
52.0847	278.0000
52.1041	294.0000
52.1236	258.0000
52.1430	272.0000
52.1625	297.0000
52.1820	273.0000
52.2014	286.0000
52.2209	296.0000
52.2403	260.0000
52.2598	267.0000
52.2792	291.0000
52.2987	299.0000
52.3182	285.0000
52.3376	266.0000
52.3571	287.0000
52.3765	307.0000
52.3960	280.0000
52.4154	286.0000
52.4349	267.0000
52.4544	257.0000
52.4738	287.0000
52.4933	279.0000
52.5127	260.0000
52.5322	261.0000
52.5516	277.0000
52.5711	290.0000
52.5905	295.0000
52.6100	236.0000
52.6295	274.0000
52.6489	274.0000
52.6684	255.0000
52.6878	266.0000
52.7073	299.0000
52.7267	285.0000
52.7462	279.0000
52.7657	279.0000
52.7851	284.0000
52.8046	289.0000
52.8240	247.0000
52.8435	276.0000
52.8629	273.0000
52.8824	283.0000
52.9019	265.0000
52.9213	249.0000
52.9408	317.0000
52.9602	265.0000
52.9797	244.0000
52.9991	248.0000
53.0186	270.0000
53.0381	249.0000
53.0575	268.0000
53.0770	290.0000
53.0964	245.0000
53.1159	242.0000
53.1353	271.0000
53.1548	284.0000
53.1743	264.0000
53.1937	281.0000
53.2132	276.0000
53.2326	280.0000
53.2521	242.0000
53.2715	280.0000
53.2910	296.0000
53.3105	266.0000
53.3299	291.0000
53.3494	285.0000
53.3688	288.0000
53.3883	253.0000
53.4077	276.0000
53.4272	272.0000
53.4467	265.0000
53.4661	285.0000
53.4856	285.0000
53.5050	261.0000
53.5245	261.0000
53.5439	258.0000
53.5634	258.0000
53.5829	294.0000
53.6023	258.0000
53.6218	247.0000
53.6412	296.0000
53.6607	292.0000
53.6801	257.0000
53.6996	257.0000
53.7191	252.0000
53.7385	275.0000
53.7580	250.0000
53.7774	261.0000
53.7969	276.0000
53.8163	269.0000
53.8358	269.0000
53.8553	285.0000
53.8747	245.0000
53.8942	277.0000
53.9136	255.0000
53.9331	270.0000
53.9525	272.0000
53.9720	268.0000
53.9915	260.0000
54.0109	248.0000
54.0304	298.0000
54.0498	274.0000
54.0693	281.0000
54.0887	288.0000
54.1082	263.0000
54.1277	236.0000
54.1471	255.0000
54.1666	272.0000
54.1860	300.0000
54.2055	290.0000
54.2249	278.0000
54.2444	271.0000
54.2639	291.0000
54.2833	244.0000
54.3028	242.0000
54.3222	273.0000
54.3417	277.0000
54.3611	262.0000
54.3806	282.0000
54.4001	281.0000
54.4195	284.0000
54.4390	283.0000
54.4584	260.0000
54.4779	259.0000
54.4973	273.0000
54.5168	243.0000
54.5363	269.0000
54.5557	255.0000
54.5752	268.0000
54.5946	283.0000
54.6141	227.0000
54.6335	241.0000
54.6530	254.0000
54.6725	265.0000
54.6919	279.0000
54.7114	297.0000
54.7308	281.0000
54.7503	278.0000
54.7697	260.0000
54.7892	242.0000
54.8087	310.0000
54.8281	296.0000
54.8476	263.0000
54.8670	296.0000
54.8865	279.0000
54.9059	267.0000
54.9254	239.0000
54.9449	270.0000
54.9643	272.0000
54.9838	255.0000
55.0032	250.0000
55.0227	286.0000
55.0421	282.0000
55.0616	261.0000
55.0811	269.0000
55.1005	244.0000
55.1200	300.0000
55.1394	276.0000
55.1589	284.0000
55.1783	278.0000
55.1978	262.0000
55.2173	274.0000
55.2367	278.0000
55.2562	247.0000
55.2756	245.0000
55.2951	256.0000
55.3145	307.0000
55.3340	272.0000
55.3534	281.0000
55.3729	280.0000
55.3924	270.0000
55.4118	279.0000
55.4313	256.0000
55.4507	270.0000
55.4702	247.0000
55.4896	247.0000
55.5091	260.0000
55.5286	271.0000
55.5480	273.0000
55.5675	296.0000
55.5869	263.0000
55.6064	285.0000
55.6258	284.0000
55.6453	281.0000
55.6648	240.0000
55.6842	261.0000
55.7037	254.0000
55.7231	266.0000
55.7426	264.0000
55.7620	275.0000
55.7815	256.0000
55.8010	251.0000
55.8204	249.0000
55.8399	285.0000
55.8593	279.0000
55.8788	277.0000
55.8982	260.0000
55.9177	292.0000
55.9372	253.0000
55.9566	282.0000
55.9761	262.0000
55.9955	263.0000
56.0150	277.0000
56.0344	248.0000
56.0539	259.0000
56.0734	254.0000
56.0928	265.0000
56.1123	273.0000
56.1317	261.0000
56.1512	255.0000
56.1706	286.0000
56.1901	265.0000
56.2096	280.0000
56.2290	282.0000
56.2485	247.0000
56.2679	247.0000
56.2874	208.0000
56.3068	263.0000
56.3263	298.0000
56.3458	246.0000
56.3652	284.0000
56.3847	279.0000
56.4041	266.0000
56.4236	274.0000
56.4430	282.0000
56.4625	283.0000
56.4820	257.0000
56.5014	262.0000
56.5209	297.0000
56.5403	275.0000
56.5598	299.0000
56.5792	284.0000
56.5987	249.0000
56.6182	296.0000
56.6376	262.0000
56.6571	260.0000
56.6765	258.0000
56.6960	266.0000
56.7154	258.0000
56.7349	260.0000
56.7544	287.0000
56.7738	283.0000
56.7933	252.0000
56.8127	273.0000
56.8322	279.0000
56.8516	269.0000
56.8711	259.0000
56.8906	280.0000
56.9100	270.0000
56.9295	250.0000
56.9489	244.0000
56.9684	311.0000
56.9878	314.0000
57.0073	290.0000
57.0268	317.0000
57.0462	292.0000
57.0657	254.0000
57.0851	275.0000
57.1046	273.0000
57.1240	262.0000
57.1435	271.0000
57.1630	280.0000
57.1824	289.0000
57.2019	262.0000
57.2213	269.0000
57.2408	302.0000
57.2602	290.0000
57.2797	263.0000
57.2992	271.0000
57.3186	290.0000
57.3381	272.0000
57.3575	268.0000
57.3770	261.0000
57.3964	279.0000
57.4159	304.0000
57.4354	271.0000
57.4548	282.0000
57.4743	282.0000
57.4937	262.0000
57.5132	274.0000
57.5326	266.0000
57.5521	276.0000
57.5716	283.0000
57.5910	279.0000
57.6105	253.0000
57.6299	278.0000
57.6494	278.0000
57.6688	299.0000
57.6883	263.0000
57.7078	243.0000
57.7272	305.0000
57.7467	271.0000
57.7661	270.0000
57.7856	276.0000
57.8050	248.0000
57.8245	271.0000
57.8440	266.0000
57.8634	270.0000
57.8829	252.0000
57.9023	264.0000
57.9218	277.0000
57.9412	259.0000
57.9607	262.0000
57.9802	264.0000
57.9996	273.0000
58.0191	263.0000
58.0385	281.0000
58.0580	260.0000
58.0774	290.0000
58.0969	276.0000
58.1163	258.0000
58.1358	287.0000
58.1553	249.0000
58.1747	253.0000
58.1942	261.0000
58.2136	261.0000
58.2331	304.0000
58.2525	272.0000
58.2720	267.0000
58.2915	257.0000
58.3109	263.0000
58.3304	257.0000
58.3498	266.0000
58.3693	259.0000
58.3887	267.0000
58.4082	273.0000
58.4277	259.0000
58.4471	276.0000
58.4666	232.0000
58.4860	263.0000
58.5055	247.0000
58.5249	248.0000
58.5444	293.0000
58.5639	254.0000
58.5833	296.0000
58.6028	271.0000
58.6222	278.0000
58.6417	230.0000
58.6611	223.0000
58.6806	271.0000
58.7001	275.0000
58.7195	246.0000
58.7390	255.0000
58.7584	269.0000
58.7779	256.0000
58.7973	255.0000
58.8168	275.0000
58.8363	275.0000
58.8557	261.0000
58.8752	274.0000
58.8946	257.0000
58.9141	243.0000
58.9335	287.0000
58.9530	249.0000
58.9725	272.0000
58.9919	255.0000
59.0114	257.0000
59.0308	294.0000
59.0503	269.0000
59.0697	256.0000
59.0892	300.0000
59.1087	284.0000
59.1281	237.0000
59.1476	243.0000
59.1670	283.0000
59.1865	265.0000
59.2059	261.0000
59.2254	289.0000
59.2449	269.0000
59.2643	253.0000
59.2838	254.0000
59.3032	264.0000
59.3227	279.0000
59.3421	243.0000
59.3616	264.0000
59.3811	276.0000
59.4005	270.0000
59.4200	287.0000
59.4394	280.0000
59.4589	289.0000
59.4783	288.0000
59.4978	274.0000
59.5173	243.0000
59.5367	254.0000
59.5562	247.0000
59.5756	272.0000
59.5951	276.0000
59.6145	276.0000
59.6340	251.0000
59.6535	253.0000
59.6729	279.0000
59.6924	269.0000
59.7118	285.0000
59.7313	272.0000
59.7507	258.0000
59.7702	258.0000
59.7897	257.0000
59.8091	265.0000
59.8286	272.0000
59.8480	273.0000
59.8675	263.0000
59.8869	236.0000
59.9064	245.0000
59.9259	268.0000
59.9453	253.0000
59.9648	248.0000
59.9842	279.0000
60.0037	246.0000
60.0231	269.0000
60.0426	281.0000
60.0621	258.0000
60.0815	277.0000
60.1010	297.0000
60.1204	268.0000
60.1399	282.0000
60.1593	268.0000
60.1788	276.0000
60.1983	304.0000
60.2177	267.0000
60.2372	286.0000
60.2566	290.0000
60.2761	268.0000
60.2955	276.0000
60.3150	248.0000
60.3345	278.0000
60.3539	266.0000
60.3734	293.0000
60.3928	284.0000
60.4123	304.0000
60.4317	269.0000
60.4512	266.0000
60.4707	259.0000
60.4901	275.0000
60.5096	280.0000
60.5290	273.0000
60.5485	275.0000
60.5679	282.0000
60.5874	298.0000
60.6069	283.0000
60.6263	274.0000
60.6458	268.0000
60.6652	241.0000
60.6847	275.0000
60.7041	284.0000
60.7236	286.0000
60.7431	283.0000
60.7625	281.0000
60.7820	292.0000
60.8014	264.0000
60.8209	240.0000
60.8403	278.0000
60.8598	256.0000
60.8793	244.0000
60.8987	271.0000
60.9182	276.0000
60.9376	285.0000
60.9571	274.0000
60.9765	262.0000
60.9960	269.0000
61.0154	263.0000
61.0349	279.0000
61.0544	261.0000
61.0738	265.0000
61.0933	282.0000
61.1127	218.0000
61.1322	268.0000
61.1516	265.0000
61.1711	260.0000
61.1906	272.0000
61.2100	291.0000
61.2295	247.0000
61.2489	271.0000
61.2684	245.0000
61.2878	263.0000
61.3073	275.0000
61.3268	265.0000
61.3462	244.0000
61.3657	280.0000
61.3851	291.0000
61.4046	259.0000
61.4240	253.0000
61.4435	274.0000
61.4630	263.0000
61.4824	255.0000
61.5019	291.0000
61.5213	262.0000
61.5408	265.0000
61.5602	275.0000
61.5797	281.0000
61.5992	264.0000
61.6186	261.0000
61.6381	267.0000
61.6575	260.0000
61.6770	277.0000
61.6964	263.0000
61.7159	259.0000
61.7354	280.0000
61.7548	270.0000
61.7743	277.0000
61.7937	264.0000
61.8132	260.0000
61.8326	258.0000
61.8521	260.0000
61.8716	273.0000
61.8910	273.0000
61.9105	271.0000
61.9299	255.0000
61.9494	264.0000
61.9688	266.0000
61.9883	258.0000
62.0078	258.0000
62.0272	242.0000
62.0467	239.0000
62.0661	241.0000
62.0856	260.0000
62.1050	251.0000
62.1245	220.0000
62.1440	262.0000
62.1634	241.0000
62.1829	267.0000
62.2023	279.0000
62.2218	273.0000
62.2412	275.0000
62.2607	274.0000
62.2802	289.0000
62.2996	250.0000
62.3191	241.0000
62.3385	294.0000
62.3580	256.0000
62.3774	276.0000
62.3969	250.0000
62.4164	269.0000
62.4358	262.0000
62.4553	269.0000
62.4747	285.0000
62.4942	263.0000
62.5136	238.0000
62.5331	247.0000
62.5526	294.0000
62.5720	264.0000
62.5915	254.0000
62.6109	284.0000
62.6304	254.0000
62.6498	242.0000
62.6693	246.0000
62.6888	258.0000
62.7082	263.0000
62.7277	267.0000
62.7471	253.0000
62.7666	281.0000
62.7860	267.0000
62.8055	264.0000
62.8250	274.0000
62.8444	250.0000
62.8639	262.0000
62.8833	273.0000
62.9028	280.0000
62.9222	282.0000
62.9417	235.0000
62.9612	244.0000
62.9806	246.0000
63.0001	247.0000
63.0195	297.0000
63.0390	248.0000
63.0584	275.0000
63.0779	265.0000
63.0974	273.0000
63.1168	272.0000
63.1363	268.0000
63.1557	282.0000
63.1752	255.0000
63.1946	254.0000
63.2141	251.0000
63.2336	292.0000
63.2530	284.0000
63.2725	257.0000
63.2919	263.0000
63.3114	292.0000
63.3308	286.0000
63.3503	281.0000
63.3698	254.0000
63.3892	246.0000
63.4087	265.0000
63.4281	266.0000
63.4476	288.0000
63.4670	274.0000
63.4865	275.0000
63.5060	275.0000
63.5254	283.0000
63.5449	270.0000
63.5643	274.0000
63.5838	255.0000
63.6032	308.0000
63.6227	268.0000
63.6422	274.0000
63.6616	269.0000
63.6811	247.0000
63.7005	284.0000
63.7200	267.0000
63.7394	281.0000
63.7589	264.0000
63.7783	264.0000
63.7978	304.0000
63.8173	266.0000
63.8367	259.0000
63.8562	248.0000
63.8756	277.0000
63.8951	290.0000
63.9145	263.0000
63.9340	274.0000
63.9535	268.0000
63.9729	258.0000
63.9924	245.0000
64.0118	280.0000
64.0313	288.0000
64.0507	238.0000
64.0702	246.0000
64.0897	303.0000
64.1091	239.0000
64.1286	242.0000
64.1480	280.0000
64.1675	242.0000
64.1869	303.0000
64.2064	303.0000
64.2259	271.0000
64.2453	259.0000
64.2648	284.0000
64.2842	284.0000
64.3037	244.0000
64.3231	257.0000
64.3426	290.0000
64.3621	294.0000
64.3815	266.0000
64.4010	259.0000
64.4204	311.0000
64.4399	277.0000
64.4593	251.0000
64.4788	265.0000
64.4983	290.0000
64.5177	257.0000
64.5372	289.0000
64.5566	239.0000
64.5761	266.0000
64.5955	291.0000
64.6150	265.0000
64.6345	280.0000
64.6539	299.0000
64.6734	261.0000
64.6928	261.0000
64.7123	266.0000
64.7317	269.0000
64.7512	269.0000
64.7707	257.0000
64.7901	243.0000
64.8096	243.0000
64.8290	270.0000
64.8485	278.0000
64.8679	283.0000
64.8874	234.0000
64.9069	279.0000
64.9263	289.0000
64.9458	264.0000
64.9652	251.0000
64.9847	271.0000
65.0041	280.0000
65.0236	253.0000
65.0431	255.0000
65.0625	251.0000
65.0820	273.0000
65.1014	259.0000
65.1209	268.0000
65.1403	288.0000
65.1598	251.0000
65.1793	263.0000
65.1987	263.0000
65.2182	262.0000
65.2376	323.0000
65.2571	283.0000
65.2765	305.0000
65.2960	275.0000
65.3155	282.0000
65.3349	266.0000
65.3544	290.0000
65.3738	277.0000
65.3933	277.0000
65.4127	270.0000
65.4322	298.0000
65.4517	260.0000
65.4711	266.0000
65.4906	293.0000
65.5100	292.0000
65.5295	250.0000
65.5489	279.0000
65.5684	266.0000
65.5879	252.0000
65.6073	244.0000
65.6268	243.0000
65.6462	271.0000
65.6657	262.0000
65.6851	262.0000
65.7046	289.0000
65.7241	255.0000
65.7435	263.0000
65.7630	259.0000
65.7824	272.0000
65.8019	282.0000
65.8213	249.0000
65.8408	265.0000
65.8603	251.0000
65.8797	267.0000
65.8992	281.0000
65.9186	281.0000
65.9381	263.0000
65.9575	232.0000
65.9770	277.0000
65.9965	261.0000
66.0159	256.0000
66.0354	293.0000
66.0548	274.0000
66.0743	262.0000
66.0937	255.0000
66.1132	278.0000
66.1327	256.0000
66.1521	243.0000
66.1716	279.0000
66.1910	274.0000
66.2105	257.0000
66.2299	217.0000
66.2494	253.0000
66.2689	290.0000
66.2883	272.0000
66.3078	269.0000
66.3272	269.0000
66.3467	254.0000
66.3661	252.0000
66.3856	250.0000
66.4051	280.0000
66.4245	254.0000
66.4440	257.0000
66.4634	282.0000
66.4829	261.0000
66.5023	277.0000
66.5218	264.0000
66.5413	258.0000
66.5607	214.0000
66.5802	253.0000
66.5996	261.0000
66.6191	241.0000
66.6385	275.0000
66.6580	279.0000
66.6774	261.0000
66.6969	272.0000
66.7164	260.0000
66.7358	268.0000
66.7553	279.0000
66.7747	264.0000
66.7942	256.0000
66.8136	247.0000
66.8331	264.0000
66.8526	229.0000
66.8720	264.0000
66.8915	261.0000
66.9109	244.0000
66.9304	246.0000
66.9498	258.0000
66.9693	252.0000
66.9888	277.0000
67.0082	256.0000
67.0277	253.0000
67.0471	266.0000
67.0666	257.0000
67.0860	238.0000
67.1055	239.0000
67.1250	258.0000
67.1444	240.0000
67.1639	280.0000
67.1833	257.0000
67.2028	242.0000
67.2222	246.0000
67.2417	275.0000
67.2612	252.0000
67.2806	269.0000
67.3001	262.0000
67.3195	281.0000
67.3390	257.0000
67.3584	247.0000
67.3779	271.0000
67.3974	310.0000
67.4168	253.0000
67.4363	265.0000
67.4557	273.0000
67.4752	282.0000
67.4946	276.0000
67.5141	257.0000
67.5336	256.0000
67.5530	262.0000
67.5725	237.0000
67.5919	242.0000
67.6114	245.0000
67.6308	231.0000
67.6503	254.0000
67.6698	264.0000
67.6892	254.0000
67.7087	295.0000
67.7281	281.0000
67.7476	270.0000
67.7670	285.0000
67.7865	239.0000
67.8060	270.0000
67.8254	229.0000
67.8449	244.0000
67.8643	283.0000
67.8838	268.0000
67.9032	270.0000
67.9227	265.0000
67.9422	264.0000
67.9616	293.0000
67.9811	251.0000
68.0005	283.0000
68.0200	259.0000
68.0394	287.0000
68.0589	263.0000
68.0784	247.0000
68.0978	282.0000
68.1173	281.0000
68.1367	251.0000
68.1562	290.0000
68.1756	276.0000
68.1951	261.0000
68.2146	258.0000
68.2340	275.0000
68.2535	296.0000
68.2729	249.0000
68.2924	250.0000
68.3118	237.0000
68.3313	268.0000
68.3508	283.0000
68.3702	276.0000
68.3897	284.0000
68.4091	244.0000
68.4286	266.0000
68.4480	259.0000
68.4675	272.0000
68.4870	258.0000
68.5064	229.0000
68.5259	278.0000
68.5453	260.0000
68.5648	283.0000
68.5842	271.0000
68.6037	277.0000
68.6232	272.0000
68.6426	257.0000
68.6621	245.0000
68.6815	260.0000
68.7010	276.0000
68.7204	246.0000
68.7399	238.0000
68.7594	276.0000
68.7788	268.0000
68.7983	210.0000
68.8177	273.0000
68.8372	248.0000
68.8566	242.0000
68.8761	293.0000
68.8956	265.0000
68.9150	268.0000
68.9345	277.0000
68.9539	264.0000
68.9734	261.0000
68.9928	246.0000
69.0123	254.0000
69.0318	256.0000
69.0512	276.0000
69.0707	288.0000
69.0901	280.0000
69.1096	291.0000
69.1290	252.0000
69.1485	280.0000
69.1680	255.0000
69.1874	242.0000
69.2069	286.0000
69.2263	256.0000
69.2458	230.0000
69.2652	243.0000
69.2847	269.0000
69.3042	238.0000
69.3236	249.0000
69.3431	282.0000
69.3625	261.0000
69.3820	292.0000
69.4014	266.0000
69.4209	251.0000
69.4403	264.0000
69.4598	246.0000
69.4793	292.0000
69.4987	229.0000
69.5182	235.0000
69.5376	268.0000
69.5571	254.0000
69.5765	250.0000
69.5960	245.0000
69.6155	261.0000
69.6349	265.0000
69.6544	279.0000
69.6738	241.0000
69.6933	304.0000
69.7127	264.0000
69.7322	262.0000
69.7517	297.0000
69.7711	254.0000
69.7906	257.0000
69.8100	234.0000
69.8295	274.0000
69.8489	267.0000
69.8684	286.0000
69.8879	266.0000
69.9073	240.0000
69.9268	288.0000
69.9462	310.0000
69.9657	258.0000
69.9851	261.0000
70.0046	242.0000
70.0241	264.0000
70.0435	285.0000
70.0630	252.0000
70.0824	281.0000
70.1019	280.0000
70.1213	284.0000
70.1408	254.0000
70.1603	276.0000
70.1797	305.0000
70.1992	265.0000
70.2186	264.0000
70.2381	251.0000
70.2575	257.0000
70.2770	245.0000
70.2965	260.0000
70.3159	249.0000
70.3354	277.0000
70.3548	245.0000
70.3743	242.0000
70.3937	261.0000
70.4132	276.0000
70.4327	268.0000
70.4521	255.0000
70.4716	264.0000
70.4910	260.0000
70.5105	265.0000
70.5299	248.0000
70.5494	280.0000
70.5689	266.0000
70.5883	273.0000
70.6078	267.0000
70.6272	255.0000
70.6467	270.0000
70.6661	266.0000
70.6856	251.0000
70.7051	274.0000
70.7245	279.0000
70.7440	262.0000
70.7634	263.0000
70.7829	255.0000
70.8023	258.0000
70.8218	259.0000
70.8413	252.0000
70.8607	248.0000
70.8802	263.0000
70.8996	263.0000
70.9191	281.0000
70.9385	249.0000
70.9580	262.0000
70.9775	259.0000
70.9969	269.0000
71.0164	252.0000
71.0358	258.0000
71.0553	258.0000
71.0747	259.0000
71.0942	272.0000
71.1137	273.0000
71.1331	259.0000
71.1526	251.0000
71.1720	248.0000
71.1915	270.0000
71.2109	230.0000
71.2304	265.0000
71.2499	266.0000
71.2693	258.0000
71.2888	281.0000
71.3082	239.0000
71.3277	265.0000
71.3471	269.0000
71.3666	257.0000
71.3861	267.0000
71.4055	263.0000
71.4250	262.0000
71.4444	287.0000
71.4639	265.0000
71.4833	259.0000
71.5028	288.0000
71.5223	262.0000
71.5417	267.0000
71.5612	259.0000
71.5806	266.0000
71.6001	246.0000
71.6195	264.0000
71.6390	251.0000
71.6585	268.0000
71.6779	269.0000
71.6974	294.0000
71.7168	238.0000
71.7363	257.0000
71.7557	270.0000
71.7752	280.0000
71.7947	259.0000
71.8141	262.0000
71.8336	259.0000
71.8530	253.0000
71.8725	262.0000
71.8919	286.0000
71.9114	247.0000
71.9309	247.0000
71.9503	247.0000
71.9698	248.0000
71.9892	274.0000
72.0087	269.0000
72.0281	279.0000
72.0476	249.0000
72.0671	282.0000
72.0865	275.0000
72.1060	242.0000
72.1254	254.0000
72.1449	278.0000
72.1643	273.0000
72.1838	247.0000
72.2032	264.0000
72.2227	283.0000
72.2422	268.0000
72.2616	272.0000
72.2811	238.0000
72.3005	243.0000
72.3200	269.0000
72.3394	263.0000
72.3589	263.0000
72.3784	261.0000
72.3978	253.0000
72.4173	271.0000
72.4367	252.0000
72.4562	264.0000
72.4756	254.0000
72.4951	265.0000
72.5146	287.0000
72.5340	267.0000
72.5535	266.0000
72.5729	294.0000
72.5924	272.0000
72.6118	247.0000
72.6313	250.0000
72.6508	259.0000
72.6702	280.0000
72.6897	289.0000
72.7091	260.0000
72.7286	240.0000
72.7480	243.0000
72.7675	261.0000
72.7870	259.0000
72.8064	267.0000
72.8259	274.0000
72.8453	268.0000
72.8648	277.0000
72.8842	283.0000
72.9037	297.0000
72.9232	246.0000
72.9426	270.0000
72.9621	265.0000
72.9815	269.0000
73.0010	284.0000
73.0204	261.0000
73.0399	254.0000
73.0594	249.0000
73.0788	281.0000
73.0983	262.0000
73.1177	282.0000
73.1372	268.0000
73.1566	277.0000
73.1761	257.0000
73.1956	277.0000
73.2150	269.0000
73.2345	243.0000
73.2539	241.0000
73.2734	253.0000
73.2928	276.0000
73.3123	287.0000
73.3318	252.0000
73.3512	240.0000
73.3707	292.0000
73.3901	248.0000
73.4096	268.0000
73.4290	251.0000
73.4485	269.0000
73.4680	256.0000
73.4874	297.0000
73.5069	299.0000
73.5263	270.0000
73.5458	275.0000
73.5652	269.0000
73.5847	260.0000
73.6042	270.0000
73.6236	259.0000
73.6431	273.0000
73.6625	298.0000
73.6820	277.0000
73.7014	245.0000
73.7209	253.0000
73.7404	273.0000
73.7598	255.0000
73.7793	286.0000
73.7987	251.0000
73.8182	294.0000
73.8376	247.0000
73.8571	293.0000
73.8766	285.0000
73.8960	269.0000
73.9155	251.0000
73.9349	272.0000
73.9544	250.0000
73.9738	264.0000
73.9933	238.0000
74.0128	248.0000
74.0322	258.0000
74.0517	275.0000
74.0711	266.0000
74.0906	268.0000
74.1100	234.0000
74.1295	251.0000
74.1490	247.0000
74.1684	269.0000
74.1879	275.0000
74.2073	261.0000
74.2268	276.0000
74.2462	264.0000
74.2657	250.0000
74.2852	277.0000
74.3046	278.0000
74.3241	248.0000
74.3435	275.0000
74.3630	286.0000
74.3824	264.0000
74.4019	258.0000
74.4214	289.0000
74.4408	290.0000
74.4603	276.0000
74.4797	283.0000
74.4992	277.0000
74.5186	292.0000
74.5381	278.0000
74.5576	278.0000
74.5770	265.0000
74.5965	272.0000
74.6159	297.0000
74.6354	264.0000
74.6548	269.0000
74.6743	281.0000
74.6938	294.0000
74.7132	288.0000
74.7327	288.0000
74.7521	301.0000
74.7716	346.0000
74.7910	310.0000
74.8105	303.0000
74.8300	295.0000
74.8494	316.0000
74.8689	259.0000
74.8883	310.0000
74.9078	316.0000
74.9272	302.0000
74.9467	341.0000
74.9662	314.0000
74.9856	334.0000
75.0051	313.0000
75.0245	337.0000
75.0440	327.0000
75.0634	312.0000
75.0829	287.0000
75.1023	330.0000
75.1218	303.0000
75.1413	306.0000
75.1607	317.0000
75.1802	282.0000
75.1996	327.0000
75.2191	307.0000
75.2385	279.0000
75.2580	283.0000
75.2775	278.0000
75.2969	286.0000
75.3164	277.0000
75.3358	293.0000
75.3553	292.0000
75.3747	313.0000
75.3942	285.0000
75.4137	297.0000
75.4331	304.0000
75.4526	315.0000
75.4720	265.0000
75.4915	288.0000
75.5109	267.0000
75.5304	278.0000
75.5499	284.0000
75.5693	280.0000
75.5888	290.0000
75.6082	270.0000
75.6277	295.0000
75.6471	263.0000
75.6666	281.0000
75.6861	268.0000
75.7055	261.0000
75.7250	240.0000
75.7444	308.0000
75.7639	288.0000
75.7833	256.0000
75.8028	284.0000
75.8223	285.0000
75.8417	283.0000
75.8612	277.0000
75.8806	239.0000
75.9001	267.0000
75.9195	257.0000
75.9390	254.0000
75.9585	263.0000
75.9779	265.0000
75.9974	297.0000
76.0168	264.0000
76.0363	299.0000
76.0557	289.0000
76.0752	277.0000
76.0947	267.0000
76.1141	290.0000
76.1336	272.0000
76.1530	272.0000
76.1725	243.0000
76.1919	260.0000
76.2114	281.0000
76.2309	293.0000
76.2503	270.0000
76.2698	275.0000
76.2892	284.0000
76.3087	267.0000
76.3281	264.0000
76.3476	259.0000
76.3671	267.0000
76.3865	281.0000
76.4060	245.0000
76.4254	282.0000
76.4449	273.0000
76.4643	259.0000
76.4838	258.0000
76.5033	281.0000
76.5227	256.0000
76.5422	255.0000
76.5616	268.0000
76.5811	273.0000
76.6005	283.0000
76.6200	264.0000
76.6395	260.0000
76.6589	265.0000
76.6784	251.0000
76.6978	243.0000
76.7173	296.0000
76.7367	260.0000
76.7562	297.0000
76.7757	268.0000
76.7951	269.0000
76.8146	285.0000
76.8340	251.0000
76.8535	273.0000
76.8729	270.0000
76.8924	245.0000
76.9119	262.0000
76.9313	285.0000
76.9508	299.0000
76.9702	278.0000
76.9897	217.0000
77.0091	255.0000
77.0286	232.0000
77.0481	251.0000
77.0675	250.0000
77.0870	260.0000
77.1064	254.0000
77.1259	279.0000
77.1453	241.0000
77.1648	286.0000
77.1843	275.0000
77.2037	252.0000
77.2232	238.0000
77.2426	269.0000
77.2621	280.0000
77.2815	260.0000
77.3010	252.0000
77.3205	252.0000
77.3399	289.0000
77.3594	251.0000
77.3788	264.0000
77.3983	253.0000
77.4177	296.0000
77.4372	295.0000
77.4567	308.0000
77.4761	274.0000
77.4956	236.0000
77.5150	222.0000
77.5345	286.0000
77.5539	241.0000
77.5734	287.0000
77.5929	274.0000
77.6123	239.0000
77.6318	305.0000
77.6512	234.0000
77.6707	265.0000
77.6901	260.0000
77.7096	257.0000
77.7291	269.0000
77.7485	278.0000
77.7680	250.0000
77.7874	263.0000
77.8069	251.0000
77.8263	293.0000
77.8458	255.0000
77.8652	276.0000
77.8847	283.0000
77.9042	270.0000
77.9236	258.0000
77.9431	265.0000
77.9625	255.0000
77.9820	263.0000
78.0014	253.0000
78.0209	265.0000
78.0404	262.0000
78.0598	249.0000
78.0793	245.0000
78.0987	272.0000
78.1182	254.0000
78.1376	265.0000
78.1571	222.0000
78.1766	273.0000
78.1960	273.0000
78.2155	282.0000
78.2349	278.0000
78.2544	285.0000
78.2738	243.0000
78.2933	239.0000
78.3128	254.0000
78.3322	291.0000
78.3517	258.0000
78.3711	250.0000
78.3906	245.0000
78.4100	276.0000
78.4295	259.0000
78.4490	252.0000
78.4684	270.0000
78.4879	225.0000
78.5073	256.0000
78.5268	265.0000
78.5462	257.0000
78.5657	275.0000
78.5852	279.0000
78.6046	267.0000
78.6241	259.0000
78.6435	275.0000
78.6630	279.0000
78.6824	299.0000
78.7019	269.0000
78.7214	274.0000
78.7408	254.0000
78.7603	256.0000
78.7797	270.0000
78.7992	256.0000
78.8186	254.0000
78.8381	264.0000
78.8576	253.0000
78.8770	236.0000
78.8965	259.0000
78.9159	247.0000
78.9354	262.0000
78.9548	255.0000
78.9743	259.0000
78.9938	247.0000
79.0132	282.0000
79.0327	284.0000
79.0521	269.0000
79.0716	276.0000
79.0910	259.0000
79.1105	271.0000
79.1300	253.0000
79.1494	283.0000
79.1689	290.0000
79.1883	227.0000
79.2078	246.0000
79.2272	253.0000
79.2467	277.0000
79.2662	292.0000
79.2856	261.0000
79.3051	251.0000
79.3245	247.0000
79.3440	271.0000
79.3634	277.0000
79.3829	237.0000
79.4024	277.0000
79.4218	238.0000
79.4413	263.0000
79.4607	265.0000
79.4802	241.0000
79.4996	250.0000
79.5191	260.0000
79.5386	253.0000
79.5580	267.0000
79.5775	250.0000
79.5969	256.0000
79.6164	282.0000
79.6358	239.0000
79.6553	213.0000
79.6748	295.0000
79.6942	254.0000
79.7137	220.0000
79.7331	248.0000
79.7526	250.0000
79.7720	250.0000
79.7915	264.0000
79.8110	251.0000
79.8304	269.0000
79.8499	273.0000
79.8693	229.0000
79.8888	253.0000
79.9082	255.0000
79.9277	254.0000
79.9472	261.0000
79.9666	243.0000
79.9861	258.0000
80.0055	247.0000
80.0250	244.0000
80.0444	251.0000
80.0639	285.0000
80.0834	271.0000
80.1028	282.0000
80.1223	252.0000
80.1417	244.0000
80.1612	272.0000
80.1806	259.0000
80.2001	272.0000
80.2196	253.0000
80.2390	258.0000
80.2585	280.0000
80.2779	287.0000
80.2974	253.0000
80.3168	269.0000
80.3363	253.0000
80.3558	257.0000
80.3752	282.0000
80.3947	267.0000
80.4141	268.0000
80.4336	259.0000
80.4530	253.0000
80.4725	266.0000
80.4920	250.0000
80.5114	277.0000
80.5309	255.0000
80.5503	260.0000
80.5698	263.0000
80.5892	260.0000
80.6087	284.0000
80.6281	328.0000
80.6476	279.0000
80.6671	250.0000
80.6865	279.0000
80.7060	260.0000
80.7254	275.0000
80.7449	262.0000
80.7643	265.0000
80.7838	264.0000
80.8033	244.0000
80.8227	254.0000
80.8422	292.0000
80.8616	265.0000
80.8811	251.0000
80.9005	273.0000
80.9200	248.0000
80.9395	260.0000
80.9589	267.0000
80.9784	229.0000
80.9978	238.0000
81.0173	296.0000
81.0367	273.0000
81.0562	274.0000
81.0757	275.0000
81.0951	274.0000
81.1146	284.0000
81.1340	258.0000
81.1535	270.0000
81.1729	256.0000
81.1924	269.0000
81.2119	303.0000
81.2313	249.0000
81.2508	277.0000
81.2702	270.0000
81.2897	264.0000
81.3091	274.0000
81.3286	262.0000
81.3481	262.0000
81.3675	276.0000
81.3870	266.0000
81.4064	242.0000
81.4259	243.0000
81.4453	262.0000
81.4648	246.0000
81.4843	251.0000
81.5037	276.0000
81.5232	262.0000
81.5426	253.0000
81.5621	273.0000
81.5815	264.0000
81.6010	274.0000
81.6205	261.0000
81.6399	237.0000
81.6594	236.0000
81.6788	276.0000
81.6983	256.0000
81.7177	251.0000
81.7372	259.0000
81.7567	245.0000
81.7761	248.0000
81.7956	260.0000
81.8150	244.0000
81.8345	285.0000
81.8539	277.0000
81.8734	258.0000
81.8929	281.0000
81.9123	280.0000
81.9318	283.0000
81.9512	272.0000
81.9707	260.0000
81.9901	258.0000
82.0096	290.0000
82.0291	297.0000
82.0485	253.0000
82.0680	267.0000
82.0874	272.0000
82.1069	265.0000
82.1263	251.0000
82.1458	243.0000
82.1653	237.0000
82.1847	235.0000
82.2042	277.0000
82.2236	266.0000
82.2431	278.0000
82.2625	256.0000
82.2820	237.0000
82.3015	236.0000
82.3209	237.0000
82.3404	232.0000
82.3598	271.0000
82.3793	250.0000
82.3987	235.0000
82.4182	258.0000
82.4377	249.0000
82.4571	274.0000
82.4766	274.0000
82.4960	285.0000
82.5155	287.0000
82.5349	283.0000
82.5544	260.0000
82.5739	249.0000
82.5933	274.0000
82.6128	256.0000
82.6322	268.0000
82.6517	272.0000
82.6711	261.0000
82.6906	286.0000
82.7101	261.0000
82.7295	242.0000
82.7490	277.0000
82.7684	256.0000
82.7879	287.0000
82.8073	252.0000
82.8268	261.0000
82.8463	284.0000
82.8657	283.0000
82.8852	275.0000
82.9046	260.0000
82.9241	259.0000
82.9435	262.0000
82.9630	255.0000
82.9825	263.0000
83.0019	254.0000
83.0214	273.0000
83.0408	247.0000
83.0603	277.0000
83.0797	258.0000
83.0992	267.0000
83.1187	279.0000
83.1381	252.0000
83.1576	273.0000
83.1770	268.0000
83.1965	282.0000
83.2159	248.0000
83.2354	274.0000
83.2549	246.0000
83.2743	263.0000
83.2938	261.0000
83.3132	241.0000
83.3327	292.0000
83.3521	268.0000
83.3716	244.0000
83.3911	280.0000
83.4105	261.0000
83.4300	287.0000
83.4494	263.0000
83.4689	260.0000
83.4883	296.0000
83.5078	274.0000
83.5272	302.0000
83.5467	263.0000
83.5662	249.0000
83.5856	254.0000
83.6051	264.0000
83.6245	264.0000
83.6440	290.0000
83.6634	276.0000
83.6829	257.0000
83.7024	287.0000
83.7218	285.0000
83.7413	282.0000
83.7607	267.0000
83.7802	268.0000
83.7996	269.0000
83.8191	274.0000
83.8386	236.0000
83.8580	262.0000
83.8775	253.0000
83.8969	258.0000
83.9164	264.0000
83.9358	277.0000
83.9553	256.0000
83.9748	278.0000
83.9942	258.0000
84.0137	298.0000
84.0331	254.0000
84.0526	243.0000
84.0720	237.0000
84.0915	250.0000
84.1110	279.0000
84.1304	256.0000
84.1499	260.0000
84.1693	247.0000
84.1888	263.0000
84.2082	270.0000
84.2277	282.0000
84.2472	268.0000
84.2666	257.0000
84.2861	245.0000
84.3055	244.0000
84.3250	260.0000
84.3444	248.0000
84.3639	295.0000
84.3834	295.0000
84.4028	254.0000
84.4223	273.0000
84.4417	276.0000
84.4612	270.0000
84.4806	275.0000
84.5001	274.0000
84.5196	278.0000
84.5390	255.0000
84.5585	247.0000
84.5779	289.0000
84.5974	263.0000
84.6168	256.0000
84.6363	266.0000
84.6558	259.0000
84.6752	277.0000
84.6947	286.0000
84.7141	249.0000
84.7336	256.0000
84.7530	249.0000
84.7725	279.0000
84.7920	256.0000
84.8114	246.0000
84.8309	263.0000
84.8503	261.0000
84.8698	255.0000
84.8892	269.0000
84.9087	279.0000
84.9282	277.0000
84.9476	279.0000
84.9671	269.0000
84.9865	263.0000
85.0060	267.0000
85.0254	277.0000
85.0449	254.0000
85.0644	246.0000
85.0838	249.0000
85.1033	265.0000
85.1227	240.0000
85.1422	266.0000
85.1616	275.0000
85.1811	252.0000
85.2006	251.0000
85.2200	265.0000
85.2395	245.0000
85.2589	271.0000
85.2784	263.0000
85.2978	239.0000
85.3173	267.0000
85.3368	259.0000
85.3562	250.0000
85.3757	275.0000
85.3951	263.0000
85.4146	281.0000
85.4340	253.0000
85.4535	246.0000
85.4730	248.0000
85.4924	271.0000
85.5119	259.0000
85.5313	229.0000
85.5508	282.0000
85.5702	278.0000
85.5897	253.0000
85.6092	264.0000
85.6286	272.0000
85.6481	246.0000
85.6675	262.0000
85.6870	248.0000
85.7064	258.0000
85.7259	253.0000
85.7454	260.0000
85.7648	246.0000
85.7843	292.0000
85.8037	286.0000
85.8232	257.0000
85.8426	269.0000
85.8621	258.0000
85.8816	278.0000
85.9010	232.0000
85.9205	244.0000
85.9399	281.0000
85.9594	259.0000
85.9788	256.0000
85.9983	259.0000
86.0178	252.0000
86.0372	271.0000
86.0567	239.0000
86.0761	260.0000
86.0956	287.0000
86.1150	260.0000
86.1345	280.0000
86.1540	268.0000
86.1734	276.0000
86.1929	295.0000
86.2123	263.0000
86.2318	260.0000
86.2512	271.0000
86.2707	271.0000
86.2901	254.0000
86.3096	237.0000
86.3291	243.0000
86.3485	283.0000
86.3680	284.0000
86.3874	268.0000
86.4069	255.0000
86.4263	270.0000
86.4458	253.0000
86.4653	267.0000
86.4847	269.0000
86.5042	252.0000
86.5236	266.0000
86.5431	236.0000
86.5625	244.0000
86.5820	273.0000
86.6015	264.0000
86.6209	276.0000
86.6404	273.0000
86.6598	262.0000
86.6793	215.0000
86.6987	267.0000
86.7182	265.0000
86.7377	255.0000
86.7571	253.0000
86.7766	262.0000
86.7960	272.0000
86.8155	272.0000
86.8349	267.0000
86.8544	258.0000
86.8739	247.0000
86.8933	272.0000
86.9128	262.0000
86.9322	255.0000
86.9517	282.0000
86.9711	282.0000
86.9906	248.0000
87.0101	238.0000
87.0295	293.0000
87.0490	279.0000
87.0684	281.0000
87.0879	274.0000
87.1073	253.0000
87.1268	254.0000
87.1463	285.0000
87.1657	262.0000
87.1852	274.0000
87.2046	291.0000
87.2241	294.0000
87.2435	265.0000
87.2630	235.0000
87.2825	249.0000
87.3019	265.0000
87.3214	249.0000
87.3408	259.0000
87.3603	281.0000
87.3797	260.0000
87.3992	279.0000
87.4187	267.0000
87.4381	257.0000
87.4576	262.0000
87.4770	257.0000
87.4965	264.0000
87.5159	245.0000
87.5354	262.0000
87.5549	260.0000
87.5743	242.0000
87.5938	302.0000
87.6132	276.0000
87.6327	255.0000
87.6521	268.0000
87.6716	258.0000
87.6911	281.0000
87.7105	276.0000
87.7300	251.0000
87.7494	279.0000
87.7689	262.0000
87.7883	261.0000
87.8078	270.0000
87.8273	241.0000
87.8467	278.0000
87.8662	262.0000
87.8856	242.0000
87.9051	261.0000
87.9245	259.0000
87.9440	246.0000
87.9635	274.0000
87.9829	228.0000
88.0024	254.0000
88.0218	263.0000
88.0413	252.0000
88.0607	285.0000
88.0802	240.0000
88.0997	281.0000
88.1191	260.0000
88.1386	260.0000
88.1580	265.0000
88.1775	276.0000
88.1969	263.0000
88.2164	257.0000
88.2359	266.0000
88.2553	270.0000
88.2748	249.0000
88.2942	279.0000
88.3137	260.0000
88.3331	228.0000
88.3526	257.0000
88.3721	272.0000
88.3915	237.0000
88.4110	265.0000
88.4304	287.0000
88.4499	270.0000
88.4693	263.0000
88.4888	248.0000
88.5083	273.0000
88.5277	257.0000
88.5472	255.0000
88.5666	273.0000
88.5861	261.0000
88.6055	275.0000
88.6250	278.0000
88.6445	293.0000
88.6639	268.0000
88.6834	246.0000
88.7028	240.0000
88.7223	280.0000
88.7417	239.0000
88.7612	256.0000
88.7807	258.0000
88.8001	271.0000
88.8196	295.0000
88.8390	288.0000
88.8585	275.0000
88.8779	266.0000
88.8974	289.0000
88.9169	288.0000
88.9363	261.0000
88.9558	276.0000
88.9752	258.0000
88.9947	257.0000
89.0141	269.0000
89.0336	252.0000
89.0531	272.0000
89.0725	267.0000
89.0920	263.0000
89.1114	305.0000
89.1309	258.0000
89.1503	267.0000
89.1698	288.0000
89.1892	267.0000
89.2087	274.0000
89.2282	263.0000
89.2476	286.0000
89.2671	297.0000
89.2865	260.0000
89.3060	279.0000
89.3254	291.0000
89.3449	262.0000
89.3644	254.0000
89.3838	247.0000
89.4033	262.0000
89.4227	288.0000
89.4422	270.0000
89.4616	276.0000
89.4811	280.0000
89.5006	299.0000
89.5200	261.0000
89.5395	274.0000
89.5589	287.0000
89.5784	263.0000
89.5978	234.0000
89.6173	273.0000
89.6368	283.0000
89.6562	241.0000
89.6757	277.0000
89.6951	261.0000
89.7146	299.0000
89.7340	288.0000
89.7535	276.0000
89.7730	262.0000
89.7924	289.0000
89.8119	281.0000
89.8313	300.0000
89.8508	285.0000
89.8702	285.0000
89.8897	262.0000
89.9092	314.0000
89.9286	252.0000
89.9481	280.0000
89.9675	266.0000
89.9870	278.0000
90.0064	286.0000
90.0259	249.0000
90.0454	278.0000
90.0648	267.0000
90.0843	279.0000
90.1037	287.0000
90.1232	289.0000
90.1426	287.0000
90.1621	284.0000
90.1816	266.0000
90.2010	268.0000
90.2205	273.0000
90.2399	295.0000
90.2594	291.0000
90.2788	315.0000
90.2983	267.0000
90.3178	275.0000
90.3372	291.0000
90.3567	269.0000
90.3761	285.0000
90.3956	314.0000
90.4150	285.0000
90.4345	297.0000
90.4540	303.0000
90.4734	303.0000
90.4929	315.0000
90.5123	320.0000
90.5318	280.0000
90.5512	346.0000
90.5707	294.0000
90.5902	336.0000
90.6096	338.0000
90.6291	333.0000
90.6485	337.0000
90.6680	360.0000
90.6874	341.0000
90.7069	382.0000
90.7264	363.0000
90.7458	352.0000
90.7653	375.0000
90.7847	380.0000
90.8042	388.0000
90.8236	387.0000
90.8431	425.0000
90.8626	414.0000
90.8820	418.0000
90.9015	418.0000
90.9209	448.0000
90.9404	422.0000
90.9598	430.0000
90.9793	474.0000
90.9988	499.0000
91.0182	456.0000
91.0377	454.0000
91.0571	469.0000
91.0766	474.0000
91.0960	452.0000
91.1155	432.0000
91.1350	466.0000
91.1544	429.0000
91.1739	453.0000
91.1933	423.0000
91.2128	424.0000
91.2322	426.0000
91.2517	397.0000
91.2712	437.0000
91.2906	399.0000
91.3101	376.0000
91.3295	390.0000
91.3490	358.0000
91.3684	382.0000
91.3879	375.0000
91.4074	366.0000
91.4268	374.0000
91.4463	361.0000
91.4657	349.0000
91.4852	321.0000
91.5046	345.0000
91.5241	352.0000
91.5436	337.0000
91.5630	321.0000
91.5825	333.0000
91.6019	350.0000
91.6214	322.0000
91.6408	337.0000
91.6603	319.0000
91.6798	308.0000
91.6992	286.0000
91.7187	305.0000
91.7381	303.0000
91.7576	312.0000
91.7770	290.0000
91.7965	280.0000
91.8160	305.0000
91.8354	312.0000
91.8549	312.0000
91.8743	303.0000
91.8938	274.0000
91.9132	279.0000
91.9327	285.0000
91.9521	277.0000
91.9716	301.0000
91.9911	289.0000
92.0105	284.0000
92.0300	304.0000
92.0494	310.0000
92.0689	305.0000
92.0883	297.0000
92.1078	289.0000
92.1273	281.0000
92.1467	267.0000
92.1662	270.0000
92.1856	255.0000
92.2051	282.0000
92.2245	268.0000
92.2440	302.0000
92.2635	282.0000
92.2829	301.0000
92.3024	251.0000
92.3218	231.0000
92.3413	272.0000
92.3607	267.0000
92.3802	264.0000
92.3997	273.0000
92.4191	287.0000
92.4386	284.0000
92.4580	268.0000
92.4775	278.0000
92.4969	281.0000
92.5164	289.0000
92.5359	265.0000
92.5553	281.0000
92.5748	274.0000
92.5942	279.0000
92.6137	279.0000
92.6331	254.0000
92.6526	279.0000
92.6721	259.0000
92.6915	291.0000
92.7110	291.0000
92.7304	284.0000
92.7499	273.0000
92.7693	263.0000
92.7888	294.0000
92.8083	260.0000
92.8277	279.0000
92.8472	295.0000
92.8666	258.0000
92.8861	271.0000
92.9055	258.0000
92.9250	286.0000
92.9445	270.0000
92.9639	276.0000
92.9834	294.0000
93.0028	282.0000
93.0223	277.0000
93.0417	260.0000
93.0612	290.0000
93.0807	266.0000
93.1001	274.0000
93.1196	251.0000
93.1390	292.0000
93.1585	248.0000
93.1779	253.0000
93.1974	288.0000
93.2169	271.0000
93.2363	270.0000
93.2558	267.0000
93.2752	297.0000
93.2947	310.0000
93.3141	253.0000
93.3336	275.0000
93.3531	294.0000
93.3725	270.0000
93.3920	269.0000
93.4114	278.0000
93.4309	276.0000
93.4503	251.0000
93.4698	246.0000
93.4893	279.0000
93.5087	278.0000
93.5282	240.0000
93.5476	331.0000
93.5671	255.0000
93.5865	268.0000
93.6060	280.0000
93.6255	285.0000
93.6449	258.0000
93.6644	289.0000
93.6838	277.0000
93.7033	270.0000
93.7227	269.0000
93.7422	242.0000
93.7617	283.0000
93.7811	246.0000
93.8006	256.0000
93.8200	288.0000
93.8395	285.0000
93.8589	259.0000
93.8784	289.0000
93.8979	304.0000
93.9173	283.0000
93.9368	293.0000
93.9562	266.0000
93.9757	290.0000
93.9951	284.0000
94.0146	253.0000
94.0341	285.0000
94.0535	258.0000
94.0730	241.0000
94.0924	301.0000
94.1119	282.0000
94.1313	282.0000
94.1508	285.0000
94.1703	293.0000
94.1897	263.0000
94.2092	289.0000
94.2286	271.0000
94.2481	286.0000
94.2675	286.0000
94.2870	294.0000
94.3065	290.0000
94.3259	265.0000
94.3454	284.0000
94.3648	263.0000
94.3843	277.0000
94.4037	281.0000
94.4232	278.0000
94.4427	280.0000
94.4621	288.0000
94.4816	291.0000
94.5010	271.0000
94.5205	267.0000
94.5399	291.0000
94.5594	267.0000
94.5789	267.0000
94.5983	261.0000
94.6178	300.0000
94.6372	253.0000
94.6567	287.0000
94.6761	281.0000
94.6956	251.0000
94.7150	281.0000
94.7345	289.0000
94.7540	251.0000
94.7734	266.0000
94.7929	275.0000
94.8123	279.0000
94.8318	261.0000
94.8512	291.0000
94.8707	291.0000
94.8902	275.0000
94.9096	264.0000
94.9291	249.0000
94.9485	277.0000
94.9680	273.0000
94.9874	273.0000
95.0069	279.0000
95.0264	271.0000
95.0458	286.0000
95.0653	265.0000
95.0847	298.0000
95.1042	288.0000
95.1236	262.0000
95.1431	295.0000
95.1626	281.0000
95.1820	258.0000
95.2015	308.0000
95.2209	260.0000
95.2404	283.0000
95.2598	280.0000
95.2793	264.0000
95.2988	271.0000
95.3182	293.0000
95.3377	306.0000
95.3571	270.0000
95.3766	292.0000
95.3960	284.0000
95.4155	290.0000
95.4350	284.0000
95.4544	260.0000
95.4739	299.0000
95.4933	305.0000
95.5128	245.0000
95.5322	301.0000
95.5517	271.0000
95.5712	260.0000
95.5906	292.0000
95.6101	247.0000
95.6295	238.0000
95.6490	280.0000
95.6684	265.0000
95.6879	292.0000
95.7074	268.0000
95.7268	292.0000
95.7463	294.0000
95.7657	260.0000
95.7852	265.0000
95.8046	262.0000
95.8241	279.0000
95.8436	290.0000
95.8630	252.0000
95.8825	293.0000
95.9019	329.0000
95.9214	295.0000
95.9408	295.0000
95.9603	281.0000
95.9798	274.0000
95.9992	269.0000
96.0187	284.0000
96.0381	293.0000
96.0576	321.0000
96.0770	272.0000
96.0965	285.0000
96.1160	306.0000
96.1354	308.0000
96.1549	292.0000
96.1743	314.0000
96.1938	313.0000
96.2132	291.0000
96.2327	304.0000
96.2522	300.0000
96.2716	300.0000
96.2911	277.0000
96.3105	284.0000
96.3300	328.0000
96.3494	279.0000
96.3689	318.0000
96.3884	317.0000
96.4078	299.0000
96.4273	274.0000
96.4467	315.0000
96.4662	316.0000
96.4856	287.0000
96.5051	302.0000
96.5246	269.0000
96.5440	304.0000
96.5635	316.0000
96.5829	313.0000
96.6024	295.0000
96.6218	312.0000
96.6413	293.0000
96.6608	289.0000
96.6802	303.0000
96.6997	305.0000
96.7191	284.0000
96.7386	293.0000
96.7580	309.0000
96.7775	326.0000
96.7970	264.0000
96.8164	284.0000
96.8359	259.0000
96.8553	305.0000
96.8748	276.0000
96.8942	274.0000
96.9137	266.0000
96.9332	302.0000
96.9526	279.0000
96.9721	292.0000
96.9915	288.0000
97.0110	276.0000
97.0304	310.0000
97.0499	292.0000
97.0694	271.0000
97.0888	261.0000
97.1083	276.0000
97.1277	278.0000
97.1472	271.0000
97.1666	283.0000
97.1861	271.0000
97.2056	307.0000
97.2250	246.0000
97.2445	289.0000
97.2639	278.0000
97.2834	276.0000
97.3028	243.0000
97.3223	280.0000
97.3418	267.0000
97.3612	282.0000
97.3807	288.0000
97.4001	271.0000
97.4196	258.0000
97.4390	271.0000
97.4585	285.0000
97.4780	300.0000
97.4974	282.0000
97.5169	310.0000
97.5363	272.0000
97.5558	233.0000
97.5752	287.0000
97.5947	278.0000
97.6141	273.0000
97.6336	281.0000
97.6531	255.0000
97.6725	257.0000
97.6920	268.0000
97.7114	262.0000
97.7309	290.0000
97.7503	272.0000
97.7698	287.0000
97.7893	263.0000
97.8087	257.0000
97.8282	270.0000
97.8476	280.0000
97.8671	289.0000
97.8865	266.0000
97.9060	260.0000
97.9255	288.0000
97.9449	278.0000
97.9644	281.0000
97.9838	283.0000
98.0033	271.0000
98.0227	253.0000
98.0422	240.0000
98.0617	297.0000
98.0811	263.0000
98.1006	279.0000
98.1200	276.0000
98.1395	276.0000
98.1589	273.0000
98.1784	273.0000
98.1979	284.0000
98.2173	264.0000
98.2368	246.0000
98.2562	245.0000
98.2757	258.0000
98.2951	287.0000
98.3146	277.0000
98.3341	281.0000
98.3535	264.0000
98.3730	282.0000
98.3924	282.0000
98.4119	280.0000
98.4313	285.0000
98.4508	270.0000
98.4703	261.0000
98.4897	277.0000
98.5092	288.0000
98.5286	261.0000
98.5481	300.0000
98.5675	293.0000
98.5870	272.0000
98.6065	278.0000
98.6259	289.0000
98.6454	252.0000
98.6648	285.0000
98.6843	288.0000
98.7037	309.0000
98.7232	279.0000
98.7427	273.0000
98.7621	283.0000
98.7816	231.0000
98.8010	251.0000
98.8205	262.0000
98.8399	236.0000
98.8594	275.0000
98.8789	317.0000
98.8983	258.0000
98.9178	288.0000
98.9372	258.0000
98.9567	259.0000
98.9761	294.0000
98.9956	285.0000
99.0151	290.0000
99.0345	274.0000
99.0540	289.0000
99.0734	306.0000
99.0929	282.0000
99.1123	290.0000
99.1318	245.0000
99.1513	234.0000
99.1707	243.0000
99.1902	252.0000
99.2096	280.0000
99.2291	260.0000
99.2485	290.0000
99.2680	282.0000
99.2875	282.0000
99.3069	243.0000
99.3264	252.0000
99.3458	281.0000
99.3653	256.0000
99.3847	280.0000
99.4042	285.0000
99.4237	277.0000
99.4431	270.0000
99.4626	274.0000
99.4820	273.0000
99.5015	251.0000
99.5209	269.0000
99.5404	259.0000
99.5599	281.0000
99.5793	289.0000
99.5988	258.0000
99.6182	270.0000
99.6377	285.0000
99.6571	288.0000
99.6766	248.0000
99.6961	281.0000
99.7155	284.0000
99.7350	261.0000
99.7544	261.0000
99.7739	277.0000
99.7933	239.0000
99.8128	281.0000
99.8323	274.0000
99.8517	284.0000
99.8712	256.0000
99.8906	273.0000
99.9101	272.0000
99.9295	269.0000
99.9490	280.0000
99.9685	258.0000
99.9879	285.0000
100.0074	286.0000
