30.0009	147.0000
30.0204	142.0000
30.0398	155.0000
30.0593	142.0000
30.0787	155.0000
30.0982	165.0000
30.1177	152.0000
30.1371	131.0000
30.1566	151.0000
30.1760	157.0000
30.1955	141.0000
30.2149	155.0000
30.2344	156.0000
30.2539	131.0000
30.2733	162.0000
30.2928	156.0000
30.3122	153.0000
30.3317	144.0000
30.3511	163.0000
30.3706	137.0000
30.3901	154.0000
30.4095	140.0000
30.4290	140.0000
30.4484	113.0000
30.4679	171.0000
30.4873	154.0000
30.5068	151.0000
30.5263	117.0000
30.5457	153.0000
30.5652	166.0000
30.5846	145.0000
30.6041	156.0000
30.6235	127.0000
30.6430	151.0000
30.6625	161.0000
30.6819	136.0000
30.7014	134.0000
30.7208	150.0000
30.7403	144.0000
30.7597	152.0000
30.7792	132.0000
30.7987	155.0000
30.8181	154.0000
30.8376	151.0000
30.8570	131.0000
30.8765	156.0000
30.8959	145.0000
30.9154	136.0000
30.9349	131.0000
30.9543	160.0000
30.9738	154.0000
30.9932	161.0000
31.0127	159.0000
31.0321	155.0000
31.0516	148.0000
31.0711	147.0000
31.0905	142.0000
31.1100	145.0000
31.1294	131.0000
31.1489	150.0000
31.1683	172.0000
31.1878	140.0000
31.2073	146.0000
31.2267	165.0000
31.2462	152.0000
31.2656	161.0000
31.2851	127.0000
31.3045	146.0000
31.3240	140.0000
31.3435	150.0000
31.3629	130.0000
31.3824	131.0000
31.4018	136.0000
31.4213	155.0000
31.4407	160.0000
31.4602	158.0000
31.4797	151.0000
31.4991	156.0000
31.5186	165.0000
31.5380	170.0000
31.5575	162.0000
31.5769	172.0000
31.5964	172.0000
31.6159	139.0000
31.6353	163.0000
31.6548	166.0000
31.6742	148.0000
31.6937	166.0000
31.7131	159.0000
31.7326	155.0000
31.7521	149.0000
31.7715	166.0000
31.7910	132.0000
31.8104	154.0000
31.8299	155.0000
31.8493	164.0000
31.8688	175.0000
31.8883	153.0000
31.9077	153.0000
31.9272	146.0000
31.9466	169.0000
31.9661	147.0000
31.9855	163.0000
32.0050	173.0000
32.0245	165.0000
32.0439	159.0000
32.0634	141.0000
32.0828	172.0000
32.1023	158.0000
32.1217	145.0000
32.1412	161.0000
32.1607	144.0000
32.1801	143.0000
32.1996	164.0000
32.2190	145.0000
32.2385	147.0000
32.2579	149.0000
32.2774	143.0000
32.2969	144.0000
32.3163	141.0000
32.3358	131.0000
32.3552	145.0000
32.3747	149.0000
32.3941	151.0000
32.4136	144.0000
32.4331	174.0000
32.4525	140.0000
32.4720	173.0000
32.4914	168.0000
32.5109	164.0000
32.5303	156.0000
32.5498	160.0000
32.5692	147.0000
32.5887	167.0000
32.6082	149.0000
32.6276	132.0000
32.6471	141.0000
32.6665	159.0000
32.6860	163.0000
32.7054	134.0000
32.7249	160.0000
32.7444	152.0000
32.7638	163.0000
32.7833	158.0000
32.8027	160.0000
32.8222	155.0000
32.8416	160.0000
32.8611	157.0000
32.8806	167.0000
32.9000	131.0000
32.9195	182.0000
32.9389	172.0000
32.9584	143.0000
32.9778	149.0000
32.9973	180.0000
33.0168	165.0000
33.0362	139.0000
33.0557	141.0000
33.0751	168.0000
33.0946	175.0000
33.1140	169.0000
33.1335	158.0000
33.1530	156.0000
33.1724	152.0000
33.1919	157.0000
33.2113	144.0000
33.2308	162.0000
33.2502	143.0000
33.2697	140.0000
33.2892	148.0000
33.3086	164.0000
33.3281	160.0000
33.3475	167.0000
33.3670	172.0000
33.3864	160.0000
33.4059	151.0000
33.4254	141.0000
33.4448	151.0000
33.4643	161.0000
33.4837	139.0000
33.5032	169.0000
33.5226	166.0000
33.5421	170.0000
33.5616	180.0000
33.5810	150.0000
33.6005	153.0000
33.6199	168.0000
33.6394	157.0000
33.6588	174.0000
33.6783	181.0000
33.6978	136.0000
33.7172	170.0000
33.7367	155.0000
33.7561	162.0000
33.7756	147.0000
33.7950	155.0000
33.8145	167.0000
33.8340	157.0000
33.8534	155.0000
33.8729	156.0000
33.8923	176.0000
33.9118	183.0000
33.9312	138.0000
33.9507	168.0000
33.9702	157.0000
33.9896	165.0000
34.0091	146.0000
34.0285	149.0000
34.0480	150.0000
34.0674	148.0000
34.0869	168.0000
34.1064	178.0000
34.1258	159.0000
34.1453	158.0000
34.1647	192.0000
34.1842	158.0000
34.2036	174.0000
34.2231	141.0000
34.2426	165.0000
34.2620	145.0000
34.2815	159.0000
34.3009	183.0000
34.3204	143.0000
34.3398	175.0000
34.3593	150.0000
34.3788	147.0000
34.3982	143.0000
34.4177	156.0000
34.4371	165.0000
34.4566	166.0000
34.4760	178.0000
34.4955	171.0000
34.5150	186.0000
34.5344	154.0000
34.5539	165.0000
34.5733	190.0000
34.5928	162.0000
34.6122	173.0000
34.6317	146.0000
34.6512	169.0000
34.6706	157.0000
34.6901	159.0000
34.7095	164.0000
34.7290	133.0000
34.7484	171.0000
34.7679	162.0000
34.7874	165.0000
34.8068	160.0000
34.8263	170.0000
34.8457	170.0000
34.8652	167.0000
34.8846	150.0000
34.9041	184.0000
34.9236	154.0000
34.9430	163.0000
34.9625	155.0000
34.9819	153.0000
35.0014	140.0000
35.0208	169.0000
35.0403	174.0000
35.0598	176.0000
35.0792	163.0000
35.0987	145.0000
35.1181	163.0000
35.1376	152.0000
35.1570	147.0000
35.1765	183.0000
35.1960	146.0000
35.2154	168.0000
35.2349	184.0000
35.2543	171.0000
35.2738	178.0000
35.2932	161.0000
35.3127	195.0000
35.3322	141.0000
35.3516	172.0000
35.3711	175.0000
35.3905	180.0000
35.4100	165.0000
35.4294	162.0000
35.4489	152.0000
35.4683	160.0000
35.4878	196.0000
35.5073	163.0000
35.5267	172.0000
35.5462	154.0000
35.5656	167.0000
35.5851	147.0000
35.6045	178.0000
35.6240	189.0000
35.6435	164.0000
35.6629	160.0000
35.6824	169.0000
35.7018	183.0000
35.7213	166.0000
35.7407	158.0000
35.7602	141.0000
35.7797	174.0000
35.7991	170.0000
35.8186	163.0000
35.8380	143.0000
35.8575	165.0000
35.8769	153.0000
35.8964	159.0000
35.9159	161.0000
35.9353	172.0000
35.9548	181.0000
35.9742	173.0000
35.9937	169.0000
36.0131	151.0000
36.0326	159.0000
36.0521	181.0000
36.0715	195.0000
36.0910	162.0000
36.1104	179.0000
36.1299	172.0000
36.1493	166.0000
36.1688	161.0000
36.1883	148.0000
36.2077	164.0000
36.2272	172.0000
36.2466	181.0000
36.2661	156.0000
36.2855	181.0000
36.3050	161.0000
36.3245	167.0000
36.3439	164.0000
36.3634	136.0000
36.3828	170.0000
36.4023	170.0000
36.4217	185.0000
36.4412	157.0000
36.4607	159.0000
36.4801	175.0000
36.4996	166.0000
36.5190	170.0000
36.5385	152.0000
36.5579	161.0000
36.5774	175.0000
36.5969	173.0000
36.6163	183.0000
36.6358	173.0000
36.6552	181.0000
36.6747	169.0000
36.6941	160.0000
36.7136	172.0000
36.7331	185.0000
36.7525	168.0000
36.7720	176.0000
36.7914	181.0000
36.8109	186.0000
36.8303	153.0000
36.8498	171.0000
36.8693	162.0000
36.8887	164.0000
36.9082	182.0000
36.9276	147.0000
36.9471	210.0000
36.9665	158.0000
36.9860	176.0000
37.0055	161.0000
37.0249	198.0000
37.0444	158.0000
37.0638	160.0000
37.0833	180.0000
37.1027	144.0000
37.1222	165.0000
37.1417	167.0000
37.1611	172.0000
37.1806	161.0000
37.2000	146.0000
37.2195	169.0000
37.2389	184.0000
37.2584	174.0000
37.2779	150.0000
37.2973	162.0000
37.3168	193.0000
37.3362	167.0000
37.3557	174.0000
37.3751	164.0000
37.3946	177.0000
37.4141	179.0000
37.4335	176.0000
37.4530	142.0000
37.4724	180.0000
37.4919	161.0000
37.5113	162.0000
37.5308	194.0000
37.5503	166.0000
37.5697	188.0000
37.5892	188.0000
37.6086	177.0000
37.6281	166.0000
37.6475	185.0000
37.6670	195.0000
37.6865	179.0000
37.7059	185.0000
37.7254	163.0000
37.7448	173.0000
37.7643	180.0000
37.7837	181.0000
37.8032	165.0000
37.8227	165.0000
37.8421	188.0000
37.8616	184.0000
37.8810	188.0000
37.9005	189.0000
37.9199	176.0000
37.9394	164.0000
37.9589	179.0000
37.9783	187.0000
37.9978	185.0000
38.0172	168.0000
38.0367	160.0000
38.0561	163.0000
38.0756	176.0000
38.0951	181.0000
38.1145	182.0000
38.1340	171.0000
38.1534	181.0000
38.1729	176.0000
38.1923	183.0000
38.2118	184.0000
38.2312	154.0000
38.2507	139.0000
38.2702	183.0000
38.2896	149.0000
38.3091	177.0000
38.3285	173.0000
38.3480	165.0000
38.3674	160.0000
38.3869	165.0000
38.4064	191.0000
38.4258	167.0000
38.4453	168.0000
38.4647	194.0000
38.4842	168.0000
38.5036	189.0000
38.5231	162.0000
38.5426	195.0000
38.5620	179.0000
38.5815	187.0000
38.6009	177.0000
38.6204	162.0000
38.6398	190.0000
38.6593	158.0000
38.6788	185.0000
38.6982	206.0000
38.7177	198.0000
38.7371	179.0000
38.7566	166.0000
38.7760	193.0000
38.7955	176.0000
38.8150	178.0000
38.8344	169.0000
38.8539	180.0000
38.8733	167.0000
38.8928	163.0000
38.9122	180.0000
38.9317	170.0000
38.9512	153.0000
38.9706	171.0000
38.9901	161.0000
39.0095	164.0000
39.0290	179.0000
39.0484	185.0000
39.0679	160.0000
39.0874	157.0000
39.1068	178.0000
39.1263	152.0000
39.1457	173.0000
39.1652	177.0000
39.1846	182.0000
39.2041	160.0000
39.2236	194.0000
39.2430	187.0000
39.2625	186.0000
39.2819	198.0000
39.3014	181.0000
39.3208	174.0000
39.3403	181.0000
39.3598	190.0000
39.3792	180.0000
39.3987	183.0000
39.4181	183.0000
39.4376	190.0000
39.4570	178.0000
39.4765	171.0000
39.4960	175.0000
39.5154	172.0000
39.5349	171.0000
39.5543	179.0000
39.5738	176.0000
39.5932	171.0000
39.6127	163.0000
39.6322	178.0000
39.6516	179.0000
39.6711	186.0000
39.6905	170.0000
39.7100	181.0000
39.7294	178.0000
39.7489	192.0000
39.7684	177.0000
39.7878	184.0000
39.8073	168.0000
39.8267	175.0000
39.8462	152.0000
39.8656	168.0000
39.8851	193.0000
39.9046	188.0000
39.9240	175.0000
39.9435	157.0000
39.9629	178.0000
39.9824	175.0000
40.0018	173.0000
40.0213	178.0000
40.0408	152.0000
40.0602	161.0000
40.0797	175.0000
40.0991	153.0000
40.1186	168.0000
40.1380	201.0000
40.1575	204.0000
40.1770	171.0000
40.1964	169.0000
40.2159	174.0000
40.2353	181.0000
40.2548	183.0000
40.2742	186.0000
40.2937	194.0000
40.3132	177.0000
40.3326	170.0000
40.3521	154.0000
40.3715	181.0000
40.3910	176.0000
40.4104	188.0000
40.4299	169.0000
40.4494	185.0000
40.4688	192.0000
40.4883	185.0000
40.5077	156.0000
40.5272	172.0000
40.5466	181.0000
40.5661	175.0000
40.5856	164.0000
40.6050	182.0000
40.6245	186.0000
40.6439	189.0000
40.6634	199.0000
40.6828	188.0000
40.7023	177.0000
40.7218	178.0000
40.7412	199.0000
40.7607	162.0000
40.7801	186.0000
40.7996	166.0000
40.8190	188.0000
40.8385	197.0000
40.8580	194.0000
40.8774	174.0000
40.8969	157.0000
40.9163	167.0000
40.9358	181.0000
40.9552	180.0000
40.9747	180.0000
40.9941	175.0000
41.0136	167.0000
41.0331	200.0000
41.0525	159.0000
41.0720	175.0000
41.0914	180.0000
41.1109	192.0000
41.1303	190.0000
41.1498	154.0000
41.1693	192.0000
41.1887	141.0000
41.2082	182.0000
41.2276	173.0000
41.2471	187.0000
41.2665	186.0000
41.2860	164.0000
41.3055	172.0000
41.3249	150.0000
41.3444	168.0000
41.3638	185.0000
41.3833	155.0000
41.4027	160.0000
41.4222	180.0000
41.4417	182.0000
41.4611	189.0000
41.4806	180.0000
41.5000	171.0000
41.5195	174.0000
41.5389	176.0000
41.5584	178.0000
41.5779	178.0000
41.5973	169.0000
41.6168	183.0000
41.6362	172.0000
41.6557	193.0000
41.6751	167.0000
41.6946	185.0000
41.7141	167.0000
41.7335	178.0000
41.7530	197.0000
41.7724	190.0000
41.7919	183.0000
41.8113	192.0000
41.8308	194.0000
41.8503	166.0000
41.8697	178.0000
41.8892	182.0000
41.9086	218.0000
41.9281	174.0000
41.9475	180.0000
41.9670	202.0000
41.9865	174.0000
42.0059	178.0000
42.0254	182.0000
42.0448	167.0000
42.0643	195.0000
42.0837	181.0000
42.1032	183.0000
42.1227	188.0000
42.1421	205.0000
42.1616	155.0000
42.1810	181.0000
42.2005	186.0000
42.2199	182.0000
42.2394	214.0000
42.2589	210.0000
42.2783	183.0000
42.2978	153.0000
42.3172	179.0000
42.3367	185.0000
42.3561	217.0000
42.3756	205.0000
42.3951	218.0000
42.4145	210.0000
42.4340	223.0000
42.4534	220.0000
42.4729	200.0000
42.4923	191.0000
42.5118	203.0000
42.5313	217.0000
42.5507	213.0000
42.5702	232.0000
42.5896	177.0000
42.6091	208.0000
42.6285	210.0000
42.6480	213.0000
42.6675	182.0000
42.6869	211.0000
42.7064	209.0000
42.7258	177.0000
42.7453	198.0000
42.7647	196.0000
42.7842	194.0000
42.8037	208.0000
42.8231	189.0000
42.8426	178.0000
42.8620	202.0000
42.8815	195.0000
42.9009	209.0000
42.9204	219.0000
42.9399	210.0000
42.9593	199.0000
42.9788	224.0000
42.9982	210.0000
43.0177	219.0000
43.0371	183.0000
43.0566	198.0000
43.0761	190.0000
43.0955	215.0000
43.1150	213.0000
43.1344	238.0000
43.1539	213.0000
43.1733	210.0000
43.1928	233.0000
43.2123	227.0000
43.2317	236.0000
43.2512	219.0000
43.2706	237.0000
43.2901	246.0000
43.3095	217.0000
43.3290	266.0000
43.3485	254.0000
43.3679	237.0000
43.3874	243.0000
43.4068	317.0000
43.4263	269.0000
43.4457	284.0000
43.4652	308.0000
43.4847	279.0000
43.5041	318.0000
43.5236	342.0000
43.5430	348.0000
43.5625	354.0000
43.5819	355.0000
43.6014	420.0000
43.6209	420.0000
43.6403	439.0000
43.6598	493.0000
43.6792	495.0000
43.6987	571.0000
43.7181	573.0000
43.7376	673.0000
43.7570	727.0000
43.7765	819.0000
43.7960	854.0000
43.8154	935.0000
43.8349	1044.0000
43.8543	1114.0000
43.8738	1234.0000
43.8932	1214.0000
43.9127	1298.0000
43.9322	1205.0000
43.9516	1119.0000
43.9711	1100.0000
43.9905	1077.0000
44.0100	975.0000
44.0294	949.0000
44.0489	800.0000
44.0684	793.0000
44.0878	748.0000
44.1073	657.0000
44.1267	601.0000
44.1462	550.0000
44.1656	479.0000
44.1851	473.0000
44.2046	423.0000
44.2240	402.0000
44.2435	415.0000
44.2629	398.0000
44.2824	340.0000
44.3018	348.0000
44.3213	313.0000
44.3408	316.0000
44.3602	278.0000
44.3797	309.0000
44.3991	300.0000
44.4186	283.0000
44.4380	246.0000
44.4575	267.0000
44.4770	265.0000
44.4964	250.0000
44.5159	285.0000
44.5353	246.0000
44.5548	239.0000
44.5742	240.0000
44.5937	238.0000
44.6132	247.0000
44.6326	227.0000
44.6521	215.0000
44.6715	217.0000
44.6910	226.0000
44.7104	216.0000
44.7299	184.0000
44.7494	202.0000
44.7688	206.0000
44.7883	215.0000
44.8077	195.0000
44.8272	205.0000
44.8466	209.0000
44.8661	200.0000
44.8856	212.0000
44.9050	210.0000
44.9245	225.0000
44.9439	203.0000
44.9634	199.0000
44.9828	201.0000
45.0023	228.0000
45.0218	199.0000
45.0412	190.0000
45.0607	209.0000
45.0801	197.0000
45.0996	203.0000
45.1190	192.0000
45.1385	198.0000
45.1580	186.0000
45.1774	180.0000
45.1969	191.0000
45.2163	181.0000
45.2358	211.0000
45.2552	185.0000
45.2747	183.0000
45.2942	165.0000
45.3136	160.0000
45.3331	182.0000
45.3525	187.0000
45.3720	175.0000
45.3914	174.0000
45.4109	219.0000
45.4304	190.0000
45.4498	179.0000
45.4693	181.0000
45.4887	173.0000
45.5082	186.0000
45.5276	202.0000
45.5471	179.0000
45.5666	187.0000
45.5860	187.0000
45.6055	188.0000
45.6249	205.0000
45.6444	175.0000
45.6638	168.0000
45.6833	198.0000
45.7028	189.0000
45.7222	213.0000
45.7417	190.0000
45.7611	183.0000
45.7806	189.0000
45.8000	171.0000
45.8195	214.0000
45.8390	175.0000
45.8584	186.0000
45.8779	199.0000
45.8973	189.0000
45.9168	199.0000
45.9362	185.0000
45.9557	200.0000
45.9752	177.0000
45.9946	212.0000
46.0141	197.0000
46.0335	174.0000
46.0530	184.0000
46.0724	200.0000
46.0919	199.0000
46.1114	193.0000
46.1308	210.0000
46.1503	155.0000
46.1697	187.0000
46.1892	184.0000
46.2086	185.0000
46.2281	189.0000
46.2476	161.0000
46.2670	169.0000
46.2865	185.0000
46.3059	210.0000
46.3254	178.0000
46.3448	181.0000
46.3643	190.0000
46.3838	177.0000
46.4032	172.0000
46.4227	211.0000
46.4421	162.0000
46.4616	174.0000
46.4810	197.0000
46.5005	174.0000
46.5199	185.0000
46.5394	188.0000
46.5589	181.0000
46.5783	177.0000
46.5978	184.0000
46.6172	201.0000
46.6367	200.0000
46.6561	174.0000
46.6756	203.0000
46.6951	190.0000
46.7145	182.0000
46.7340	207.0000
46.7534	202.0000
46.7729	195.0000
46.7923	204.0000
46.8118	206.0000
46.8313	211.0000
46.8507	198.0000
46.8702	209.0000
46.8896	207.0000
46.9091	223.0000
46.9285	200.0000
46.9480	206.0000
46.9675	197.0000
46.9869	210.0000
47.0064	180.0000
47.0258	192.0000
47.0453	221.0000
47.0647	185.0000
47.0842	187.0000
47.1037	178.0000
47.1231	201.0000
47.1426	174.0000
47.1620	204.0000
47.1815	176.0000
47.2009	202.0000
47.2204	159.0000
47.2399	172.0000
47.2593	181.0000
47.2788	192.0000
47.2982	202.0000
47.3177	160.0000
47.3371	183.0000
47.3566	195.0000
47.3761	179.0000
47.3955	214.0000
47.4150	194.0000
47.4344	197.0000
47.4539	176.0000
47.4733	169.0000
47.4928	174.0000
47.5123	195.0000
47.5317	181.0000
47.5512	163.0000
47.5706	193.0000
47.5901	182.0000
47.6095	172.0000
47.6290	182.0000
47.6485	218.0000
47.6679	189.0000
47.6874	208.0000
47.7068	176.0000
47.7263	186.0000
47.7457	188.0000
47.7652	175.0000
47.7847	201.0000
47.8041	191.0000
47.8236	199.0000
47.8430	196.0000
47.8625	207.0000
47.8819	174.0000
47.9014	190.0000
47.9209	196.0000
47.9403	198.0000
47.9598	189.0000
47.9792	177.0000
47.9987	195.0000
48.0181	203.0000
48.0376	200.0000
48.0571	175.0000
48.0765	170.0000
48.0960	181.0000
48.1154	182.0000
48.1349	179.0000
48.1543	182.0000
48.1738	186.0000
48.1933	179.0000
48.2127	169.0000
48.2322	181.0000
48.2516	198.0000
48.2711	187.0000
48.2905	178.0000
48.3100	167.0000
48.3295	192.0000
48.3489	172.0000
48.3684	220.0000
48.3878	204.0000
48.4073	189.0000
48.4267	183.0000
48.4462	198.0000
48.4657	190.0000
48.4851	190.0000
48.5046	176.0000
48.5240	204.0000
48.5435	202.0000
48.5629	175.0000
48.5824	184.0000
48.6019	165.0000
48.6213	177.0000
48.6408	190.0000
48.6602	188.0000
48.6797	190.0000
48.6991	159.0000
48.7186	170.0000
48.7381	184.0000
48.7575	185.0000
48.7770	189.0000
48.7964	179.0000
48.8159	169.0000
48.8353	170.0000
48.8548	173.0000
48.8743	184.0000
48.8937	185.0000
48.9132	174.0000
48.9326	186.0000
48.9521	172.0000
48.9715	202.0000
48.9910	196.0000
49.0105	147.0000
49.0299	175.0000
49.0494	207.0000
49.0688	211.0000
49.0883	196.0000
49.1077	197.0000
49.1272	173.0000
49.1467	172.0000
49.1661	197.0000
49.1856	193.0000
49.2050	199.0000
49.2245	188.0000
49.2439	211.0000
49.2634	175.0000
49.2829	201.0000
49.3023	187.0000
49.3218	195.0000
49.3412	183.0000
49.3607	184.0000
49.3801	191.0000
49.3996	181.0000
49.4190	183.0000
49.4385	190.0000
49.4580	158.0000
49.4774	182.0000
49.4969	197.0000
49.5163	173.0000
49.5358	189.0000
49.5552	218.0000
49.5747	198.0000
49.5942	209.0000
49.6136	225.0000
49.6331	193.0000
49.6525	205.0000
49.6720	196.0000
49.6914	200.0000
49.7109	171.0000
49.7304	192.0000
49.7498	187.0000
49.7693	192.0000
49.7887	202.0000
49.8082	219.0000
49.8276	233.0000
49.8471	214.0000
49.8666	208.0000
49.8860	201.0000
49.9055	223.0000
49.9249	205.0000
49.9444	208.0000
49.9638	221.0000
49.9833	189.0000
50.0028	200.0000
50.0222	199.0000
50.0417	206.0000
50.0611	216.0000
50.0806	206.0000
50.1000	190.0000
50.1195	219.0000
50.1390	238.0000
50.1584	195.0000
50.1779	218.0000
50.1973	221.0000
50.2168	202.0000
50.2362	202.0000
50.2557	220.0000
50.2752	234.0000
50.2946	252.0000
50.3141	249.0000
50.3335	226.0000
50.3530	225.0000
50.3724	245.0000
50.3919	236.0000
50.4114	251.0000
50.4308	266.0000
50.4503	262.0000
50.4697	266.0000
50.4892	296.0000
50.5086	271.0000
50.5281	277.0000
50.5476	302.0000
50.5670	305.0000
50.5865	316.0000
50.6059	313.0000
50.6254	313.0000
50.6448	355.0000
50.6643	335.0000
50.6838	403.0000
50.7032	421.0000
50.7227	390.0000
50.7421	435.0000
50.7616	446.0000
50.7810	506.0000
50.8005	507.0000
50.8200	541.0000
50.8394	590.0000
50.8589	631.0000
50.8783	676.0000
50.8978	715.0000
50.9172	770.0000
50.9367	741.0000
50.9562	763.0000
50.9756	804.0000
50.9951	826.0000
51.0145	827.0000
51.0340	785.0000
51.0534	748.0000
51.0729	726.0000
51.0924	755.0000
51.1118	739.0000
51.1313	662.0000
51.1507	653.0000
51.1702	603.0000
51.1896	551.0000
51.2091	536.0000
51.2286	492.0000
51.2480	430.0000
51.2675	408.0000
51.2869	371.0000
51.3064	365.0000
51.3258	340.0000
51.3453	339.0000
51.3648	319.0000
51.3842	307.0000
51.4037	341.0000
51.4231	249.0000
51.4426	259.0000
51.4620	274.0000
51.4815	275.0000
51.5010	262.0000
51.5204	218.0000
51.5399	220.0000
51.5593	234.0000
51.5788	262.0000
51.5982	220.0000
51.6177	239.0000
51.6372	210.0000
51.6566	210.0000
51.6761	213.0000
51.6955	228.0000
51.7150	194.0000
51.7344	208.0000
51.7539	204.0000
51.7734	231.0000
51.7928	209.0000
51.8123	214.0000
51.8317	191.0000
51.8512	184.0000
51.8706	223.0000
51.8901	207.0000
51.9096	194.0000
51.9290	204.0000
51.9485	176.0000
51.9679	171.0000
51.9874	221.0000
52.0068	192.0000
52.0263	187.0000
52.0458	186.0000
52.0652	206.0000
52.0847	180.0000
52.1041	217.0000
52.1236	188.0000
52.1430	192.0000
52.1625	189.0000
52.1819	183.0000
52.2014	175.0000
52.2209	193.0000
52.2403	223.0000
52.2598	168.0000
52.2792	189.0000
52.2987	205.0000
52.3181	181.0000
52.3376	203.0000
52.3571	168.0000
52.3765	169.0000
52.3960	181.0000
52.4154	180.0000
52.4349	181.0000
52.4543	163.0000
52.4738	184.0000
52.4933	193.0000
52.5127	183.0000
52.5322	172.0000
52.5516	175.0000
52.5711	188.0000
52.5905	194.0000
52.6100	182.0000
52.6295	168.0000
52.6489	182.0000
52.6684	188.0000
52.6878	155.0000
52.7073	186.0000
52.7267	201.0000
52.7462	157.0000
52.7657	184.0000
52.7851	155.0000
52.8046	189.0000
52.8240	194.0000
52.8435	177.0000
52.8629	184.0000
52.8824	182.0000
52.9019	162.0000
52.9213	175.0000
52.9408	193.0000
52.9602	190.0000
52.9797	186.0000
52.9991	177.0000
53.0186	192.0000
53.0381	158.0000
53.0575	206.0000
53.0770	189.0000
53.0964	182.0000
53.1159	186.0000
53.1353	200.0000
53.1548	162.0000
53.1743	181.0000
53.1937	182.0000
53.2132	172.0000
53.2326	186.0000
53.2521	176.0000
53.2715	196.0000
53.2910	193.0000
53.3105	163.0000
53.3299	192.0000
53.3494	171.0000
53.3688	162.0000
53.3883	167.0000
53.4077	183.0000
53.4272	163.0000
53.4467	161.0000
53.4661	173.0000
53.4856	172.0000
53.5050	168.0000
53.5245	179.0000
53.5439	189.0000
53.5634	175.0000
53.5829	199.0000
53.6023	191.0000
53.6218	153.0000
53.6412	189.0000
53.6607	186.0000
53.6801	170.0000
53.6996	177.0000
53.7191	184.0000
53.7385	171.0000
53.7580	186.0000
53.7774	180.0000
53.7969	165.0000
53.8163	193.0000
53.8358	174.0000
53.8553	186.0000
53.8747	165.0000
53.8942	181.0000
53.9136	186.0000
53.9331	198.0000
53.9525	182.0000
53.9720	190.0000
53.9915	168.0000
54.0109	179.0000
54.0304	174.0000
54.0498	169.0000
54.0693	197.0000
54.0887	164.0000
54.1082	182.0000
54.1277	171.0000
54.1471	193.0000
54.1666	174.0000
54.1860	175.0000
54.2055	175.0000
54.2249	180.0000
54.2444	167.0000
54.2639	180.0000
54.2833	165.0000
54.3028	188.0000
54.3222	169.0000
54.3417	172.0000
54.3611	164.0000
54.3806	173.0000
54.4001	143.0000
54.4195	166.0000
54.4390	159.0000
54.4584	171.0000
54.4779	186.0000
54.4973	169.0000
54.5168	172.0000
54.5363	178.0000
54.5557	176.0000
54.5752	157.0000
54.5946	167.0000
54.6141	176.0000
54.6335	179.0000
54.6530	178.0000
54.6725	169.0000
54.6919	189.0000
54.7114	193.0000
54.7308	176.0000
54.7503	179.0000
54.7697	156.0000
54.7892	162.0000
54.8087	197.0000
54.8281	188.0000
54.8476	197.0000
54.8670	155.0000
54.8865	180.0000
54.9059	172.0000
54.9254	179.0000
54.9448	183.0000
54.9643	193.0000
54.9838	178.0000
55.0032	183.0000
55.0227	175.0000
55.0421	191.0000
55.0616	189.0000
55.0810	177.0000
55.1005	161.0000
55.1200	185.0000
55.1394	167.0000
55.1589	184.0000
55.1783	161.0000
55.1978	177.0000
55.2172	186.0000
55.2367	190.0000
55.2562	174.0000
55.2756	170.0000
55.2951	197.0000
55.3145	195.0000
55.3340	214.0000
55.3534	156.0000
55.3729	183.0000
55.3924	158.0000
55.4118	169.0000
55.4313	170.0000
55.4507	188.0000
55.4702	186.0000
55.4896	189.0000
55.5091	161.0000
55.5286	174.0000
55.5480	158.0000
55.5675	158.0000
55.5869	174.0000
55.6064	168.0000
55.6258	177.0000
55.6453	185.0000
55.6648	180.0000
55.6842	186.0000
55.7037	197.0000
55.7231	185.0000
55.7426	187.0000
55.7620	172.0000
55.7815	200.0000
55.8010	193.0000
55.8204	149.0000
55.8399	166.0000
55.8593	208.0000
55.8788	183.0000
55.8982	158.0000
55.9177	184.0000
55.9372	203.0000
55.9566	158.0000
55.9761	180.0000
55.9955	158.0000
56.0150	163.0000
56.0344	198.0000
56.0539	163.0000
56.0734	183.0000
56.0928	172.0000
56.1123	162.0000
56.1317	173.0000
56.1512	189.0000
56.1706	171.0000
56.1901	174.0000
56.2096	174.0000
56.2290	195.0000
56.2485	178.0000
56.2679	197.0000
56.2874	170.0000
56.3068	182.0000
56.3263	187.0000
56.3458	187.0000
56.3652	182.0000
56.3847	201.0000
56.4041	169.0000
56.4236	172.0000
56.4430	178.0000
56.4625	164.0000
56.4820	186.0000
56.5014	196.0000
56.5209	168.0000
56.5403	144.0000
56.5598	198.0000
56.5792	194.0000
56.5987	176.0000
56.6182	174.0000
56.6376	182.0000
56.6571	188.0000
56.6765	184.0000
56.6960	171.0000
56.7154	174.0000
56.7349	188.0000
56.7544	159.0000
56.7738	181.0000
56.7933	178.0000
56.8127	191.0000
56.8322	191.0000
56.8516	162.0000
56.8711	181.0000
56.8906	178.0000
56.9100	176.0000
56.9295	179.0000
56.9489	178.0000
56.9684	190.0000
56.9878	196.0000
57.0073	175.0000
57.0268	145.0000
57.0462	187.0000
57.0657	163.0000
57.0851	190.0000
57.1046	173.0000
57.1240	193.0000
57.1435	175.0000
57.1630	162.0000
57.1824	166.0000
57.2019	189.0000
57.2213	196.0000
57.2408	186.0000
57.2602	184.0000
57.2797	154.0000
57.2992	154.0000
57.3186	188.0000
57.3381	184.0000
57.3575	184.0000
57.3770	185.0000
57.3964	199.0000
57.4159	177.0000
57.4354	190.0000
57.4548	157.0000
57.4743	151.0000
57.4937	176.0000
57.5132	172.0000
57.5326	170.0000
57.5521	198.0000
57.5716	184.0000
57.5910	184.0000
57.6105	182.0000
57.6299	178.0000
57.6494	187.0000
57.6688	168.0000
57.6883	175.0000
57.7077	173.0000
57.7272	178.0000
57.7467	161.0000
57.7661	160.0000
57.7856	168.0000
57.8050	169.0000
57.8245	163.0000
57.8439	184.0000
57.8634	168.0000
57.8829	183.0000
57.9023	174.0000
57.9218	177.0000
57.9412	146.0000
57.9607	159.0000
57.9801	181.0000
57.9996	166.0000
58.0191	178.0000
58.0385	177.0000
58.0580	173.0000
58.0774	169.0000
58.0969	192.0000
58.1163	198.0000
58.1358	191.0000
58.1553	168.0000
58.1747	184.0000
58.1942	165.0000
58.2136	162.0000
58.2331	178.0000
58.2525	147.0000
58.2720	182.0000
58.2915	170.0000
58.3109	184.0000
58.3304	169.0000
58.3498	169.0000
58.3693	185.0000
58.3887	180.0000
58.4082	168.0000
58.4277	179.0000
58.4471	172.0000
58.4666	174.0000
58.4860	197.0000
58.5055	196.0000
58.5249	176.0000
58.5444	162.0000
58.5639	191.0000
58.5833	173.0000
58.6028	191.0000
58.6222	189.0000
58.6417	191.0000
58.6611	186.0000
58.6806	179.0000
58.7001	189.0000
58.7195	156.0000
58.7390	191.0000
58.7584	202.0000
58.7779	157.0000
58.7973	182.0000
58.8168	184.0000
58.8363	196.0000
58.8557	177.0000
58.8752	208.0000
58.8946	163.0000
58.9141	169.0000
58.9335	180.0000
58.9530	183.0000
58.9725	196.0000
58.9919	179.0000
59.0114	161.0000
59.0308	185.0000
59.0503	188.0000
59.0697	172.0000
59.0892	195.0000
59.1087	162.0000
59.1281	184.0000
59.1476	172.0000
59.1670	169.0000
59.1865	204.0000
59.2059	196.0000
59.2254	176.0000
59.2449	192.0000
59.2643	180.0000
59.2838	180.0000
59.3032	186.0000
59.3227	181.0000
59.3421	179.0000
59.3616	190.0000
59.3811	183.0000
59.4005	189.0000
59.4200	178.0000
59.4394	173.0000
59.4589	190.0000
59.4783	200.0000
59.4978	180.0000
59.5173	169.0000
59.5367	194.0000
59.5562	169.0000
59.5756	160.0000
59.5951	193.0000
59.6145	187.0000
59.6340	187.0000
59.6535	185.0000
59.6729	188.0000
59.6924	179.0000
59.7118	172.0000
59.7313	176.0000
59.7507	191.0000
59.7702	197.0000
59.7897	203.0000
59.8091	178.0000
59.8286	176.0000
59.8480	181.0000
59.8675	159.0000
59.8869	177.0000
59.9064	170.0000
59.9259	180.0000
59.9453	164.0000
59.9648	177.0000
59.9842	174.0000
60.0037	176.0000
60.0231	209.0000
60.0426	157.0000
60.0621	172.0000
60.0815	185.0000
60.1010	193.0000
60.1204	183.0000
60.1399	180.0000
60.1593	164.0000
60.1788	184.0000
60.1983	166.0000
60.2177	179.0000
60.2372	173.0000
60.2566	170.0000
60.2761	196.0000
60.2955	197.0000
60.3150	173.0000
60.3345	174.0000
60.3539	172.0000
60.3734	163.0000
60.3928	183.0000
60.4123	188.0000
60.4317	166.0000
60.4512	164.0000
60.4706	196.0000
60.4901	173.0000
60.5096	183.0000
60.5290	174.0000
60.5485	182.0000
60.5679	179.0000
60.5874	174.0000
60.6068	161.0000
60.6263	162.0000
60.6458	167.0000
60.6652	198.0000
60.6847	195.0000
60.7041	186.0000
60.7236	183.0000
60.7430	190.0000
60.7625	202.0000
60.7820	180.0000
60.8014	166.0000
60.8209	164.0000
60.8403	168.0000
60.8598	185.0000
60.8792	144.0000
60.8987	150.0000
60.9182	187.0000
60.9376	186.0000
60.9571	164.0000
60.9765	191.0000
60.9960	200.0000
61.0154	176.0000
61.0349	192.0000
61.0544	184.0000
61.0738	160.0000
61.0933	182.0000
61.1127	173.0000
61.1322	169.0000
61.1516	180.0000
61.1711	195.0000
61.1906	159.0000
61.2100	160.0000
61.2295	189.0000
61.2489	184.0000
61.2684	173.0000
61.2878	185.0000
61.3073	174.0000
61.3268	178.0000
61.3462	178.0000
61.3657	171.0000
61.3851	194.0000
61.4046	186.0000
61.4240	182.0000
61.4435	187.0000
61.4630	193.0000
61.4824	199.0000
61.5019	181.0000
61.5213	153.0000
61.5408	163.0000
61.5602	182.0000
61.5797	174.0000
61.5992	160.0000
61.6186	174.0000
61.6381	182.0000
61.6575	179.0000
61.6770	185.0000
61.6964	179.0000
61.7159	179.0000
61.7354	175.0000
61.7548	156.0000
61.7743	189.0000
61.7937	170.0000
61.8132	163.0000
61.8326	165.0000
61.8521	185.0000
61.8716	156.0000
61.8910	149.0000
61.9105	156.0000
61.9299	178.0000
61.9494	181.0000
61.9688	158.0000
61.9883	165.0000
62.0078	167.0000
62.0272	192.0000
62.0467	170.0000
62.0661	172.0000
62.0856	137.0000
62.1050	155.0000
62.1245	175.0000
62.1440	181.0000
62.1634	164.0000
62.1829	202.0000
62.2023	183.0000
62.2218	189.0000
62.2412	206.0000
62.2607	161.0000
62.2802	174.0000
62.2996	179.0000
62.3191	172.0000
62.3385	149.0000
62.3580	190.0000
62.3774	161.0000
62.3969	208.0000
62.4164	175.0000
62.4358	168.0000
62.4553	185.0000
62.4747	176.0000
62.4942	165.0000
62.5136	173.0000
62.5331	174.0000
62.5526	180.0000
62.5720	175.0000
62.5915	175.0000
62.6109	173.0000
62.6304	144.0000
62.6498	210.0000
62.6693	177.0000
62.6888	185.0000
62.7082	168.0000
62.7277	166.0000
62.7471	185.0000
62.7666	177.0000
62.7860	172.0000
62.8055	167.0000
62.8250	185.0000
62.8444	182.0000
62.8639	188.0000
62.8833	182.0000
62.9028	197.0000
62.9222	173.0000
62.9417	132.0000
62.9612	183.0000
62.9806	168.0000
63.0001	185.0000
63.0195	169.0000
63.0390	194.0000
63.0584	159.0000
63.0779	196.0000
63.0974	184.0000
63.1168	185.0000
63.1363	182.0000
63.1557	195.0000
63.1752	167.0000
63.1946	177.0000
63.2141	172.0000
63.2336	167.0000
63.2530	183.0000
63.2725	180.0000
63.2919	177.0000
63.3114	199.0000
63.3308	181.0000
63.3503	148.0000
63.3697	161.0000
63.3892	186.0000
63.4087	186.0000
63.4281	180.0000
63.4476	188.0000
63.4670	165.0000
63.4865	167.0000
63.5059	170.0000
63.5254	168.0000
63.5449	173.0000
63.5643	157.0000
63.5838	185.0000
63.6032	184.0000
63.6227	176.0000
63.6421	175.0000
63.6616	199.0000
63.6811	185.0000
63.7005	175.0000
63.7200	184.0000
63.7394	164.0000
63.7589	184.0000
63.7783	156.0000
63.7978	186.0000
63.8173	169.0000
63.8367	198.0000
63.8562	175.0000
63.8756	168.0000
63.8951	204.0000
63.9145	206.0000
63.9340	177.0000
63.9535	180.0000
63.9729	187.0000
63.9924	179.0000
64.0118	186.0000
64.0313	183.0000
64.0507	194.0000
64.0702	170.0000
64.0897	165.0000
64.1091	197.0000
64.1286	181.0000
64.1480	171.0000
64.1675	199.0000
64.1869	188.0000
64.2064	192.0000
64.2259	196.0000
64.2453	188.0000
64.2648	174.0000
64.2842	185.0000
64.3037	169.0000
64.3231	158.0000
64.3426	162.0000
64.3621	174.0000
64.3815	165.0000
64.4010	191.0000
64.4204	185.0000
64.4399	155.0000
64.4593	185.0000
64.4788	179.0000
64.4983	166.0000
64.5177	178.0000
64.5372	206.0000
64.5566	164.0000
64.5761	176.0000
64.5955	167.0000
64.6150	180.0000
64.6345	183.0000
64.6539	170.0000
64.6734	189.0000
64.6928	165.0000
64.7123	166.0000
64.7317	184.0000
64.7512	167.0000
64.7707	173.0000
64.7901	180.0000
64.8096	158.0000
64.8290	178.0000
64.8485	198.0000
64.8679	180.0000
64.8874	187.0000
64.9069	171.0000
64.9263	181.0000
64.9458	203.0000
64.9652	195.0000
64.9847	203.0000
65.0041	171.0000
65.0236	187.0000
65.0431	185.0000
65.0625	174.0000
65.0820	182.0000
65.1014	177.0000
65.1209	176.0000
65.1403	168.0000
65.1598	192.0000
65.1793	192.0000
65.1987	182.0000
65.2182	175.0000
65.2376	181.0000
65.2571	172.0000
65.2765	163.0000
65.2960	177.0000
65.3155	158.0000
65.3349	194.0000
65.3544	168.0000
65.3738	157.0000
65.3933	202.0000
65.4127	195.0000
65.4322	150.0000
65.4517	194.0000
65.4711	181.0000
65.4906	142.0000
65.5100	180.0000
65.5295	186.0000
65.5489	168.0000
65.5684	176.0000
65.5879	170.0000
65.6073	170.0000
65.6268	168.0000
65.6462	165.0000
65.6657	174.0000
65.6851	133.0000
65.7046	176.0000
65.7241	153.0000
65.7435	187.0000
65.7630	179.0000
65.7824	185.0000
65.8019	173.0000
65.8213	175.0000
65.8408	179.0000
65.8603	181.0000
65.8797	180.0000
65.8992	172.0000
65.9186	151.0000
65.9381	187.0000
65.9575	161.0000
65.9770	191.0000
65.9965	181.0000
66.0159	165.0000
66.0354	156.0000
66.0548	168.0000
66.0743	168.0000
66.0937	174.0000
66.1132	174.0000
66.1326	201.0000
66.1521	189.0000
66.1716	186.0000
66.1910	199.0000
66.2105	162.0000
66.2299	196.0000
66.2494	146.0000
66.2688	154.0000
66.2883	199.0000
66.3078	184.0000
66.3272	166.0000
66.3467	186.0000
66.3661	189.0000
66.3856	180.0000
66.4050	189.0000
66.4245	181.0000
66.4440	174.0000
66.4634	177.0000
66.4829	179.0000
66.5023	179.0000
66.5218	171.0000
66.5412	159.0000
66.5607	199.0000
66.5802	157.0000
66.5996	180.0000
66.6191	165.0000
66.6385	152.0000
66.6580	181.0000
66.6774	176.0000
66.6969	183.0000
66.7164	152.0000
66.7358	165.0000
66.7553	179.0000
66.7747	182.0000
66.7942	165.0000
66.8136	184.0000
66.8331	155.0000
66.8526	176.0000
66.8720	163.0000
66.8915	190.0000
66.9109	171.0000
66.9304	169.0000
66.9498	168.0000
66.9693	173.0000
66.9888	172.0000
67.0082	176.0000
67.0277	181.0000
67.0471	192.0000
67.0666	166.0000
67.0860	176.0000
67.1055	161.0000
67.1250	167.0000
67.1444	212.0000
67.1639	175.0000
67.1833	180.0000
67.2028	186.0000
67.2222	186.0000
67.2417	180.0000
67.2612	158.0000
67.2806	149.0000
67.3001	177.0000
67.3195	172.0000
67.3390	177.0000
67.3584	156.0000
67.3779	138.0000
67.3974	164.0000
67.4168	191.0000
67.4363	142.0000
67.4557	172.0000
67.4752	167.0000
67.4946	153.0000
67.5141	166.0000
67.5336	169.0000
67.5530	174.0000
67.5725	144.0000
67.5919	183.0000
67.6114	192.0000
67.6308	149.0000
67.6503	155.0000
67.6698	165.0000
67.6892	179.0000
67.7087	168.0000
67.7281	160.0000
67.7476	175.0000
67.7670	156.0000
67.7865	184.0000
67.8060	150.0000
67.8254	196.0000
67.8449	154.0000
67.8643	176.0000
67.8838	193.0000
67.9032	176.0000
67.9227	169.0000
67.9422	176.0000
67.9616	160.0000
67.9811	147.0000
68.0005	186.0000
68.0200	181.0000
68.0394	199.0000
68.0589	186.0000
68.0784	170.0000
68.0978	191.0000
68.1173	176.0000
68.1367	181.0000
68.1562	178.0000
68.1756	173.0000
68.1951	150.0000
68.2146	198.0000
68.2340	135.0000
68.2535	196.0000
68.2729	183.0000
68.2924	169.0000
68.3118	171.0000
68.3313	152.0000
68.3508	176.0000
68.3702	176.0000
68.3897	154.0000
68.4091	200.0000
68.4286	177.0000
68.4480	201.0000
68.4675	171.0000
68.4870	182.0000
68.5064	167.0000
68.5259	167.0000
68.5453	198.0000
68.5648	164.0000
68.5842	181.0000
68.6037	166.0000
68.6232	184.0000
68.6426	178.0000
68.6621	193.0000
68.6815	189.0000
68.7010	159.0000
68.7204	178.0000
68.7399	199.0000
68.7594	184.0000
68.7788	196.0000
68.7983	192.0000
68.8177	199.0000
68.8372	179.0000
68.8566	175.0000
68.8761	171.0000
68.8955	152.0000
68.9150	174.0000
68.9345	177.0000
68.9539	157.0000
68.9734	170.0000
68.9928	185.0000
69.0123	186.0000
69.0317	167.0000
69.0512	179.0000
69.0707	195.0000
69.0901	186.0000
69.1096	167.0000
69.1290	172.0000
69.1485	181.0000
69.1679	187.0000
69.1874	163.0000
69.2069	194.0000
69.2263	152.0000
69.2458	189.0000
69.2652	172.0000
69.2847	185.0000
69.3041	174.0000
69.3236	180.0000
69.3431	180.0000
69.3625	176.0000
69.3820	160.0000
69.4014	189.0000
69.4209	172.0000
69.4403	181.0000
69.4598	162.0000
69.4793	160.0000
69.4987	162.0000
69.5182	157.0000
69.5376	173.0000
69.5571	183.0000
69.5765	178.0000
69.5960	181.0000
69.6155	188.0000
69.6349	176.0000
69.6544	151.0000
69.6738	162.0000
69.6933	178.0000
69.7127	188.0000
69.7322	155.0000
69.7517	185.0000
69.7711	178.0000
69.7906	154.0000
69.8100	164.0000
69.8295	161.0000
69.8489	165.0000
69.8684	177.0000
69.8879	196.0000
69.9073	175.0000
69.9268	170.0000
69.9462	169.0000
69.9657	185.0000
69.9851	153.0000
70.0046	176.0000
70.0241	164.0000
70.0435	186.0000
70.0630	185.0000
70.0824	178.0000
70.1019	191.0000
70.1213	167.0000
70.1408	182.0000
70.1603	184.0000
70.1797	164.0000
70.1992	188.0000
70.2186	179.0000
70.2381	157.0000
70.2575	184.0000
70.2770	187.0000
70.2965	179.0000
70.3159	157.0000
70.3354	190.0000
70.3548	165.0000
70.3743	183.0000
70.3937	201.0000
70.4132	186.0000
70.4327	198.0000
70.4521	146.0000
70.4716	173.0000
70.4910	168.0000
70.5105	190.0000
70.5299	190.0000
70.5494	174.0000
70.5689	178.0000
70.5883	153.0000
70.6078	182.0000
70.6272	166.0000
70.6467	180.0000
70.6661	155.0000
70.6856	196.0000
70.7051	162.0000
70.7245	171.0000
70.7440	174.0000
70.7634	152.0000
70.7829	170.0000
70.8023	176.0000
70.8218	159.0000
70.8413	206.0000
70.8607	176.0000
70.8802	196.0000
70.8996	188.0000
70.9191	184.0000
70.9385	197.0000
70.9580	189.0000
70.9775	164.0000
70.9969	183.0000
71.0164	167.0000
71.0358	185.0000
71.0553	186.0000
71.0747	175.0000
71.0942	180.0000
71.1137	168.0000
71.1331	176.0000
71.1526	177.0000
71.1720	176.0000
71.1915	177.0000
71.2109	173.0000
71.2304	194.0000
71.2499	159.0000
71.2693	182.0000
71.2888	205.0000
71.3082	152.0000
71.3277	174.0000
71.3471	173.0000
71.3666	165.0000
71.3861	173.0000
71.4055	187.0000
71.4250	197.0000
71.4444	171.0000
71.4639	168.0000
71.4833	193.0000
71.5028	168.0000
71.5223	184.0000
71.5417	172.0000
71.5612	194.0000
71.5806	188.0000
71.6001	191.0000
71.6195	178.0000
71.6390	145.0000
71.6584	169.0000
71.6779	186.0000
71.6974	181.0000
71.7168	182.0000
71.7363	184.0000
71.7557	167.0000
71.7752	154.0000
71.7946	172.0000
71.8141	164.0000
71.8336	168.0000
71.8530	184.0000
71.8725	183.0000
71.8919	183.0000
71.9114	162.0000
71.9308	181.0000
71.9503	180.0000
71.9698	172.0000
71.9892	171.0000
72.0087	175.0000
72.0281	174.0000
72.0476	172.0000
72.0670	190.0000
72.0865	177.0000
72.1060	190.0000
72.1254	181.0000
72.1449	181.0000
72.1643	161.0000
72.1838	179.0000
72.2032	190.0000
72.2227	189.0000
72.2422	171.0000
72.2616	190.0000
72.2811	168.0000
72.3005	168.0000
72.3200	190.0000
72.3394	192.0000
72.3589	186.0000
72.3784	182.0000
72.3978	209.0000
72.4173	170.0000
72.4367	165.0000
72.4562	213.0000
72.4756	185.0000
72.4951	173.0000
72.5146	197.0000
72.5340	175.0000
72.5535	180.0000
72.5729	191.0000
72.5924	149.0000
72.6118	180.0000
72.6313	157.0000
72.6508	175.0000
72.6702	184.0000
72.6897	159.0000
72.7091	194.0000
72.7286	172.0000
72.7480	182.0000
72.7675	164.0000
72.7870	166.0000
72.8064	176.0000
72.8259	171.0000
72.8453	173.0000
72.8648	216.0000
72.8842	168.0000
72.9037	176.0000
72.9232	175.0000
72.9426	154.0000
72.9621	176.0000
72.9815	160.0000
73.0010	182.0000
73.0204	174.0000
73.0399	161.0000
73.0594	218.0000
73.0788	207.0000
73.0983	171.0000
73.1177	191.0000
73.1372	189.0000
73.1566	175.0000
73.1761	179.0000
73.1956	179.0000
73.2150	186.0000
73.2345	183.0000
73.2539	179.0000
73.2734	163.0000
73.2928	191.0000
73.3123	174.0000
73.3318	202.0000
73.3512	169.0000
73.3707	172.0000
73.3901	185.0000
73.4096	180.0000
73.4290	170.0000
73.4485	165.0000
73.4680	182.0000
73.4874	197.0000
73.5069	192.0000
73.5263	161.0000
73.5458	167.0000
73.5652	166.0000
73.5847	197.0000
73.6042	197.0000
73.6236	207.0000
73.6431	179.0000
73.6625	190.0000
73.6820	171.0000
73.7014	165.0000
73.7209	183.0000
73.7404	190.0000
73.7598	186.0000
73.7793	185.0000
73.7987	170.0000
73.8182	176.0000
73.8376	193.0000
73.8571	153.0000
73.8766	194.0000
73.8960	188.0000
73.9155	186.0000
73.9349	173.0000
73.9544	193.0000
73.9738	188.0000
73.9933	167.0000
74.0128	185.0000
74.0322	181.0000
74.0517	208.0000
74.0711	158.0000
74.0906	193.0000
74.1100	169.0000
74.1295	166.0000
74.1490	182.0000
74.1684	192.0000
74.1879	163.0000
74.2073	190.0000
74.2268	156.0000
74.2462	202.0000
74.2657	194.0000
74.2852	202.0000
74.3046	184.0000
74.3241	192.0000
74.3435	186.0000
74.3630	196.0000
74.3824	183.0000
74.4019	184.0000
74.4213	186.0000
74.4408	175.0000
74.4603	180.0000
74.4797	202.0000
74.4992	192.0000
74.5186	169.0000
74.5381	192.0000
74.5575	197.0000
74.5770	209.0000
74.5965	198.0000
74.6159	185.0000
74.6354	233.0000
74.6548	216.0000
74.6743	213.0000
74.6937	228.0000
74.7132	208.0000
74.7327	248.0000
74.7521	263.0000
74.7716	234.0000
74.7910	212.0000
74.8105	234.0000
74.8299	255.0000
74.8494	230.0000
74.8689	221.0000
74.8883	233.0000
74.9078	270.0000
74.9272	257.0000
74.9467	269.0000
74.9661	283.0000
74.9856	252.0000
75.0051	252.0000
75.0245	282.0000
75.0440	281.0000
75.0634	278.0000
75.0829	270.0000
75.1023	272.0000
75.1218	276.0000
75.1413	232.0000
75.1607	255.0000
75.1802	280.0000
75.1996	245.0000
75.2191	255.0000
75.2385	232.0000
75.2580	223.0000
75.2775	237.0000
75.2969	238.0000
75.3164	216.0000
75.3358	217.0000
75.3553	223.0000
75.3747	203.0000
75.3942	210.0000
75.4137	209.0000
75.4331	218.0000
75.4526	212.0000
75.4720	201.0000
75.4915	210.0000
75.5109	198.0000
75.5304	200.0000
75.5499	172.0000
75.5693	205.0000
75.5888	213.0000
75.6082	210.0000
75.6277	188.0000
75.6471	193.0000
75.6666	189.0000
75.6861	191.0000
75.7055	214.0000
75.7250	203.0000
75.7444	178.0000
75.7639	171.0000
75.7833	217.0000
75.8028	191.0000
75.8223	173.0000
75.8417	216.0000
75.8612	186.0000
75.8806	210.0000
75.9001	181.0000
75.9195	178.0000
75.9390	188.0000
75.9585	186.0000
75.9779	177.0000
75.9974	174.0000
76.0168	170.0000
76.0363	173.0000
76.0557	206.0000
76.0752	170.0000
76.0947	168.0000
76.1141	188.0000
76.1336	180.0000
76.1530	175.0000
76.1725	187.0000
76.1919	181.0000
76.2114	186.0000
76.2309	174.0000
76.2503	204.0000
76.2698	178.0000
76.2892	175.0000
76.3087	207.0000
76.3281	204.0000
76.3476	211.0000
76.3671	191.0000
76.3865	183.0000
76.4060	180.0000
76.4254	177.0000
76.4449	198.0000
76.4643	185.0000
76.4838	169.0000
76.5033	200.0000
76.5227	193.0000
76.5422	173.0000
76.5616	188.0000
76.5811	191.0000
76.6005	178.0000
76.6200	194.0000
76.6395	170.0000
76.6589	186.0000
76.6784	167.0000
76.6978	205.0000
76.7173	192.0000
76.7367	188.0000
76.7562	186.0000
76.7757	177.0000
76.7951	174.0000
76.8146	177.0000
76.8340	206.0000
76.8535	187.0000
76.8729	176.0000
76.8924	183.0000
76.9119	172.0000
76.9313	175.0000
76.9508	178.0000
76.9702	162.0000
76.9897	156.0000
77.0091	194.0000
77.0286	166.0000
77.0481	202.0000
77.0675	160.0000
77.0870	167.0000
77.1064	166.0000
77.1259	177.0000
77.1453	176.0000
77.1648	165.0000
77.1843	190.0000
77.2037	197.0000
77.2232	162.0000
77.2426	200.0000
77.2621	182.0000
77.2815	206.0000
77.3010	178.0000
77.3204	179.0000
77.3399	200.0000
77.3594	188.0000
77.3788	161.0000
77.3983	175.0000
77.4177	176.0000
77.4372	163.0000
77.4566	179.0000
77.4761	183.0000
77.4956	163.0000
77.5150	161.0000
77.5345	171.0000
77.5539	166.0000
77.5734	166.0000
77.5928	166.0000
77.6123	183.0000
77.6318	165.0000
77.6512	166.0000
77.6707	165.0000
77.6901	164.0000
77.7096	164.0000
77.7290	184.0000
77.7485	180.0000
77.7680	191.0000
77.7874	192.0000
77.8069	168.0000
77.8263	190.0000
77.8458	181.0000
77.8652	204.0000
77.8847	158.0000
77.9042	207.0000
77.9236	189.0000
77.9431	172.0000
77.9625	197.0000
77.9820	163.0000
78.0014	169.0000
78.0209	193.0000
78.0404	155.0000
78.0598	162.0000
78.0793	169.0000
78.0987	170.0000
78.1182	164.0000
78.1376	187.0000
78.1571	163.0000
78.1766	166.0000
78.1960	158.0000
78.2155	157.0000
78.2349	158.0000
78.2544	169.0000
78.2738	187.0000
78.2933	180.0000
78.3128	201.0000
78.3322	168.0000
78.3517	201.0000
78.3711	160.0000
78.3906	188.0000
78.4100	181.0000
78.4295	174.0000
78.4490	189.0000
78.4684	160.0000
78.4879	175.0000
78.5073	187.0000
78.5268	190.0000
78.5462	156.0000
78.5657	173.0000
78.5852	176.0000
78.6046	181.0000
78.6241	183.0000
78.6435	162.0000
78.6630	172.0000
78.6824	180.0000
78.7019	155.0000
78.7214	187.0000
78.7408	168.0000
78.7603	150.0000
78.7797	168.0000
78.7992	152.0000
78.8186	183.0000
78.8381	182.0000
78.8576	195.0000
78.8770	162.0000
78.8965	149.0000
78.9159	195.0000
78.9354	162.0000
78.9548	176.0000
78.9743	158.0000
78.9938	177.0000
79.0132	169.0000
79.0327	162.0000
79.0521	174.0000
79.0716	183.0000
79.0910	164.0000
79.1105	182.0000
79.1300	187.0000
79.1494	195.0000
79.1689	167.0000
79.1883	156.0000
79.2078	179.0000
79.2272	174.0000
79.2467	182.0000
79.2662	169.0000
79.2856	189.0000
79.3051	186.0000
79.3245	191.0000
79.3440	176.0000
79.3634	160.0000
79.3829	185.0000
79.4024	176.0000
79.4218	172.0000
79.4413	180.0000
79.4607	199.0000
79.4802	196.0000
79.4996	174.0000
79.5191	177.0000
79.5386	188.0000
79.5580	178.0000
79.5775	200.0000
79.5969	185.0000
79.6164	168.0000
79.6358	185.0000
79.6553	177.0000
79.6748	172.0000
79.6942	190.0000
79.7137	164.0000
79.7331	171.0000
79.7526	155.0000
79.7720	164.0000
79.7915	145.0000
79.8110	181.0000
79.8304	178.0000
79.8499	188.0000
79.8693	184.0000
79.8888	172.0000
79.9082	189.0000
79.9277	174.0000
79.9472	155.0000
79.9666	185.0000
79.9861	183.0000
80.0055	172.0000
80.0250	189.0000
80.0444	179.0000
80.0639	187.0000
80.0833	173.0000
80.1028	173.0000
80.1223	182.0000
80.1417	188.0000
80.1612	181.0000
80.1806	177.0000
80.2001	190.0000
80.2195	179.0000
80.2390	190.0000
80.2585	175.0000
80.2779	179.0000
80.2974	176.0000
80.3168	162.0000
80.3363	182.0000
80.3557	199.0000
80.3752	175.0000
80.3947	191.0000
80.4141	187.0000
80.4336	178.0000
80.4530	171.0000
80.4725	170.0000
80.4919	191.0000
80.5114	165.0000
80.5309	205.0000
80.5503	176.0000
80.5698	189.0000
80.5892	189.0000
80.6087	158.0000
80.6281	159.0000
80.6476	178.0000
80.6671	186.0000
80.6865	189.0000
80.7060	188.0000
80.7254	193.0000
80.7449	182.0000
80.7643	198.0000
80.7838	174.0000
80.8033	203.0000
80.8227	193.0000
80.8422	175.0000
80.8616	185.0000
80.8811	190.0000
80.9005	186.0000
80.9200	184.0000
80.9395	180.0000
80.9589	171.0000
80.9784	171.0000
80.9978	189.0000
81.0173	165.0000
81.0367	184.0000
81.0562	183.0000
81.0757	156.0000
81.0951	171.0000
81.1146	174.0000
81.1340	187.0000
81.1535	190.0000
81.1729	178.0000
81.1924	174.0000
81.2119	193.0000
81.2313	204.0000
81.2508	193.0000
81.2702	171.0000
81.2897	178.0000
81.3091	199.0000
81.3286	184.0000
81.3481	192.0000
81.3675	173.0000
81.3870	185.0000
81.4064	182.0000
81.4259	197.0000
81.4453	152.0000
81.4648	193.0000
81.4843	183.0000
81.5037	203.0000
81.5232	177.0000
81.5426	184.0000
81.5621	164.0000
81.5815	177.0000
81.6010	164.0000
81.6205	174.0000
81.6399	162.0000
81.6594	186.0000
81.6788	158.0000
81.6983	155.0000
81.7177	156.0000
81.7372	163.0000
81.7567	170.0000
81.7761	179.0000
81.7956	176.0000
81.8150	180.0000
81.8345	176.0000
81.8539	181.0000
81.8734	184.0000
81.8929	183.0000
81.9123	157.0000
81.9318	153.0000
81.9512	193.0000
81.9707	168.0000
81.9901	171.0000
82.0096	191.0000
82.0291	193.0000
82.0485	176.0000
82.0680	177.0000
82.0874	160.0000
82.1069	185.0000
82.1263	173.0000
82.1458	190.0000
82.1653	180.0000
82.1847	200.0000
82.2042	165.0000
82.2236	162.0000
82.2431	171.0000
82.2625	200.0000
82.2820	177.0000
82.3015	187.0000
82.3209	160.0000
82.3404	163.0000
82.3598	193.0000
82.3793	181.0000
82.3987	175.0000
82.4182	173.0000
82.4377	157.0000
82.4571	191.0000
82.4766	178.0000
82.4960	167.0000
82.5155	175.0000
82.5349	169.0000
82.5544	206.0000
82.5739	156.0000
82.5933	150.0000
82.6128	168.0000
82.6322	191.0000
82.6517	172.0000
82.6711	173.0000
82.6906	174.0000
82.7101	177.0000
82.7295	170.0000
82.7490	202.0000
82.7684	186.0000
82.7879	172.0000
82.8073	193.0000
82.8268	188.0000
82.8462	190.0000
82.8657	185.0000
82.8852	163.0000
82.9046	184.0000
82.9241	200.0000
82.9435	169.0000
82.9630	164.0000
82.9824	167.0000
83.0019	175.0000
83.0214	173.0000
83.0408	199.0000
83.0603	175.0000
83.0797	202.0000
83.0992	184.0000
83.1186	166.0000
83.1381	176.0000
83.1576	191.0000
83.1770	196.0000
83.1965	178.0000
83.2159	180.0000
83.2354	179.0000
83.2548	206.0000
83.2743	142.0000
83.2938	191.0000
83.3132	171.0000
83.3327	186.0000
83.3521	173.0000
83.3716	193.0000
83.3910	180.0000
83.4105	182.0000
83.4300	159.0000
83.4494	166.0000
83.4689	184.0000
83.4883	178.0000
83.5078	207.0000
83.5272	184.0000
83.5467	180.0000
83.5662	170.0000
83.5856	185.0000
83.6051	173.0000
83.6245	159.0000
83.6440	190.0000
83.6634	166.0000
83.6829	193.0000
83.7024	205.0000
83.7218	167.0000
83.7413	183.0000
83.7607	158.0000
83.7802	160.0000
83.7996	185.0000
83.8191	178.0000
83.8386	189.0000
83.8580	195.0000
83.8775	175.0000
83.8969	186.0000
83.9164	184.0000
83.9358	174.0000
83.9553	174.0000
83.9748	162.0000
83.9942	169.0000
84.0137	175.0000
84.0331	164.0000
84.0526	192.0000
84.0720	179.0000
84.0915	159.0000
84.1110	190.0000
84.1304	173.0000
84.1499	171.0000
84.1693	201.0000
84.1888	193.0000
84.2082	163.0000
84.2277	185.0000
84.2472	176.0000
84.2666	175.0000
84.2861	165.0000
84.3055	174.0000
84.3250	194.0000
84.3444	174.0000
84.3639	183.0000
84.3834	207.0000
84.4028	199.0000
84.4223	188.0000
84.4417	187.0000
84.4612	186.0000
84.4806	177.0000
84.5001	149.0000
84.5196	194.0000
84.5390	163.0000
84.5585	175.0000
84.5779	169.0000
84.5974	170.0000
84.6168	182.0000
84.6363	182.0000
84.6558	163.0000
84.6752	185.0000
84.6947	164.0000
84.7141	178.0000
84.7336	184.0000
84.7530	191.0000
84.7725	156.0000
84.7920	166.0000
84.8114	189.0000
84.8309	155.0000
84.8503	197.0000
84.8698	143.0000
84.8892	201.0000
84.9087	190.0000
84.9282	162.0000
84.9476	173.0000
84.9671	190.0000
84.9865	173.0000
85.0060	184.0000
85.0254	163.0000
85.0449	179.0000
85.0644	178.0000
85.0838	178.0000
85.1033	199.0000
85.1227	206.0000
85.1422	172.0000
85.1616	188.0000
85.1811	162.0000
85.2006	184.0000
85.2200	187.0000
85.2395	176.0000
85.2589	174.0000
85.2784	163.0000
85.2978	170.0000
85.3173	192.0000
85.3368	186.0000
85.3562	177.0000
85.3757	137.0000
85.3951	190.0000
85.4146	187.0000
85.4340	177.0000
85.4535	153.0000
85.4730	190.0000
85.4924	180.0000
85.5119	171.0000
85.5313	195.0000
85.5508	178.0000
85.5702	178.0000
85.5897	182.0000
85.6091	181.0000
85.6286	163.0000
85.6481	171.0000
85.6675	160.0000
85.6870	169.0000
85.7064	174.0000
85.7259	192.0000
85.7453	186.0000
85.7648	172.0000
85.7843	170.0000
85.8037	184.0000
85.8232	184.0000
85.8426	212.0000
85.8621	179.0000
85.8815	207.0000
85.9010	197.0000
85.9205	174.0000
85.9399	194.0000
85.9594	154.0000
85.9788	194.0000
85.9983	169.0000
86.0177	179.0000
86.0372	183.0000
86.0567	184.0000
86.0761	177.0000
86.0956	165.0000
86.1150	178.0000
86.1345	175.0000
86.1539	152.0000
86.1734	171.0000
86.1929	185.0000
86.2123	194.0000
86.2318	177.0000
86.2512	172.0000
86.2707	186.0000
86.2901	169.0000
86.3096	157.0000
86.3291	170.0000
86.3485	177.0000
86.3680	166.0000
86.3874	198.0000
86.4069	182.0000
86.4263	182.0000
86.4458	171.0000
86.4653	170.0000
86.4847	177.0000
86.5042	183.0000
86.5236	180.0000
86.5431	185.0000
86.5625	165.0000
86.5820	158.0000
86.6015	174.0000
86.6209	167.0000
86.6404	183.0000
86.6598	183.0000
86.6793	168.0000
86.6987	174.0000
86.7182	172.0000
86.7377	186.0000
86.7571	171.0000
86.7766	183.0000
86.7960	175.0000
86.8155	175.0000
86.8349	169.0000
86.8544	204.0000
86.8739	175.0000
86.8933	191.0000
86.9128	168.0000
86.9322	163.0000
86.9517	186.0000
86.9711	182.0000
86.9906	151.0000
87.0101	142.0000
87.0295	166.0000
87.0490	171.0000
87.0684	180.0000
87.0879	174.0000
87.1073	184.0000
87.1268	187.0000
87.1463	177.0000
87.1657	178.0000
87.1852	186.0000
87.2046	216.0000
87.2241	186.0000
87.2435	164.0000
87.2630	175.0000
87.2825	176.0000
87.3019	172.0000
87.3214	213.0000
87.3408	176.0000
87.3603	172.0000
87.3797	197.0000
87.3992	166.0000
87.4187	189.0000
87.4381	188.0000
87.4576	175.0000
87.4770	178.0000
87.4965	171.0000
87.5159	159.0000
87.5354	185.0000
87.5549	166.0000
87.5743	171.0000
87.5938	169.0000
87.6132	148.0000
87.6327	187.0000
87.6521	167.0000
87.6716	179.0000
87.6911	204.0000
87.7105	202.0000
87.7300	199.0000
87.7494	189.0000
87.7689	174.0000
87.7883	161.0000
87.8078	184.0000
87.8273	188.0000
87.8467	198.0000
87.8662	150.0000
87.8856	175.0000
87.9051	177.0000
87.9245	178.0000
87.9440	195.0000
87.9635	170.0000
87.9829	178.0000
88.0024	167.0000
88.0218	192.0000
88.0413	169.0000
88.0607	179.0000
88.0802	164.0000
88.0997	170.0000
88.1191	169.0000
88.1386	187.0000
88.1580	187.0000
88.1775	171.0000
88.1969	186.0000
88.2164	177.0000
88.2359	151.0000
88.2553	176.0000
88.2748	189.0000
88.2942	162.0000
88.3137	183.0000
88.3331	184.0000
88.3526	193.0000
88.3720	196.0000
88.3915	189.0000
88.4110	189.0000
88.4304	176.0000
88.4499	161.0000
88.4693	194.0000
88.4888	198.0000
88.5082	180.0000
88.5277	153.0000
88.5472	176.0000
88.5666	188.0000
88.5861	170.0000
88.6055	191.0000
88.6250	180.0000
88.6444	173.0000
88.6639	193.0000
88.6834	194.0000
88.7028	181.0000
88.7223	178.0000
88.7417	188.0000
88.7612	183.0000
88.7806	169.0000
88.8001	151.0000
88.8196	199.0000
88.8390	197.0000
88.8585	202.0000
88.8779	191.0000
88.8974	195.0000
88.9168	201.0000
88.9363	185.0000
88.9558	182.0000
88.9752	199.0000
88.9947	187.0000
89.0141	172.0000
89.0336	196.0000
89.0530	188.0000
89.0725	161.0000
89.0920	166.0000
89.1114	172.0000
89.1309	181.0000
89.1503	181.0000
89.1698	203.0000
89.1892	171.0000
89.2087	189.0000
89.2282	158.0000
89.2476	194.0000
89.2671	189.0000
89.2865	193.0000
89.3060	210.0000
89.3254	200.0000
89.3449	197.0000
89.3644	180.0000
89.3838	180.0000
89.4033	174.0000
89.4227	181.0000
89.4422	191.0000
89.4616	180.0000
89.4811	191.0000
89.5006	181.0000
89.5200	185.0000
89.5395	212.0000
89.5589	165.0000
89.5784	180.0000
89.5978	213.0000
89.6173	214.0000
89.6368	161.0000
89.6562	169.0000
89.6757	200.0000
89.6951	196.0000
89.7146	195.0000
89.7340	205.0000
89.7535	188.0000
89.7730	203.0000
89.7924	201.0000
89.8119	191.0000
89.8313	174.0000
89.8508	189.0000
89.8702	199.0000
89.8897	202.0000
89.9092	193.0000
89.9286	185.0000
89.9481	192.0000
89.9675	195.0000
89.9870	184.0000
90.0064	196.0000
90.0259	197.0000
90.0454	200.0000
90.0648	189.0000
90.0843	206.0000
90.1037	204.0000
90.1232	228.0000
90.1426	228.0000
90.1621	178.0000
90.1816	219.0000
90.2010	213.0000
90.2205	199.0000
90.2399	214.0000
90.2594	216.0000
90.2788	206.0000
90.2983	236.0000
90.3178	218.0000
90.3372	223.0000
90.3567	210.0000
90.3761	215.0000
90.3956	207.0000
90.4150	241.0000
90.4345	229.0000
90.4540	245.0000
90.4734	225.0000
90.4929	212.0000
90.5123	247.0000
90.5318	204.0000
90.5512	265.0000
90.5707	251.0000
90.5902	249.0000
90.6096	276.0000
90.6291	279.0000
90.6485	270.0000
90.6680	263.0000
90.6874	290.0000
90.7069	286.0000
90.7264	273.0000
90.7458	277.0000
90.7653	307.0000
90.7847	338.0000
90.8042	317.0000
90.8236	363.0000
90.8431	355.0000
90.8626	368.0000
90.8820	421.0000
90.9015	361.0000
90.9209	383.0000
90.9404	377.0000
90.9598	368.0000
90.9793	339.0000
90.9988	356.0000
91.0182	313.0000
91.0377	373.0000
91.0571	350.0000
91.0766	310.0000
91.0960	306.0000
91.1155	336.0000
91.1350	306.0000
91.1544	303.0000
91.1739	315.0000
91.1933	303.0000
91.2128	305.0000
91.2322	299.0000
91.2517	307.0000
91.2711	272.0000
91.2906	274.0000
91.3101	267.0000
91.3295	251.0000
91.3490	274.0000
91.3684	225.0000
91.3879	253.0000
91.4073	285.0000
91.4268	242.0000
91.4463	233.0000
91.4657	188.0000
91.4852	225.0000
91.5046	210.0000
91.5241	231.0000
91.5435	212.0000
91.5630	216.0000
91.5825	222.0000
91.6019	202.0000
91.6214	198.0000
91.6408	212.0000
91.6603	217.0000
91.6797	208.0000
91.6992	208.0000
91.7187	230.0000
91.7381	193.0000
91.7576	200.0000
91.7770	216.0000
91.7965	200.0000
91.8159	179.0000
91.8354	221.0000
91.8549	193.0000
91.8743	188.0000
91.8938	201.0000
91.9132	187.0000
91.9327	193.0000
91.9521	188.0000
91.9716	205.0000
91.9911	183.0000
92.0105	217.0000
92.0300	182.0000
92.0494	196.0000
92.0689	173.0000
92.0883	178.0000
92.1078	208.0000
92.1273	190.0000
92.1467	187.0000
92.1662	196.0000
92.1856	182.0000
92.2051	218.0000
92.2245	223.0000
92.2440	185.0000
92.2635	170.0000
92.2829	204.0000
92.3024	186.0000
92.3218	204.0000
92.3413	193.0000
92.3607	175.0000
92.3802	188.0000
92.3997	195.0000
92.4191	197.0000
92.4386	215.0000
92.4580	181.0000
92.4775	191.0000
92.4969	181.0000
92.5164	186.0000
92.5359	184.0000
92.5553	199.0000
92.5748	202.0000
92.5942	206.0000
92.6137	203.0000
92.6331	183.0000
92.6526	203.0000
92.6721	175.0000
92.6915	175.0000
92.7110	169.0000
92.7304	198.0000
92.7499	194.0000
92.7693	187.0000
92.7888	221.0000
92.8083	184.0000
92.8277	191.0000
92.8472	181.0000
92.8666	221.0000
92.8861	211.0000
92.9055	197.0000
92.9250	201.0000
92.9445	194.0000
92.9639	173.0000
92.9834	230.0000
93.0028	174.0000
93.0223	189.0000
93.0417	174.0000
93.0612	203.0000
93.0807	182.0000
93.1001	187.0000
93.1196	173.0000
93.1390	184.0000
93.1585	204.0000
93.1779	206.0000
93.1974	193.0000
93.2169	207.0000
93.2363	165.0000
93.2558	200.0000
93.2752	203.0000
93.2947	215.0000
93.3141	195.0000
93.3336	194.0000
93.3531	182.0000
93.3725	179.0000
93.3920	188.0000
93.4114	196.0000
93.4309	190.0000
93.4503	183.0000
93.4698	216.0000
93.4893	167.0000
93.5087	183.0000
93.5282	200.0000
93.5476	165.0000
93.5671	194.0000
93.5865	168.0000
93.6060	194.0000
93.6255	188.0000
93.6449	185.0000
93.6644	197.0000
93.6838	209.0000
93.7033	193.0000
93.7227	195.0000
93.7422	180.0000
93.7617	209.0000
93.7811	204.0000
93.8006	199.0000
93.8200	217.0000
93.8395	179.0000
93.8589	198.0000
93.8784	189.0000
93.8979	173.0000
93.9173	211.0000
93.9368	209.0000
93.9562	213.0000
93.9757	193.0000
93.9951	207.0000
94.0146	231.0000
94.0340	204.0000
94.0535	176.0000
94.0730	223.0000
94.0924	202.0000
94.1119	218.0000
94.1313	196.0000
94.1508	162.0000
94.1702	200.0000
94.1897	211.0000
94.2092	191.0000
94.2286	217.0000
94.2481	203.0000
94.2675	195.0000
94.2870	171.0000
94.3064	202.0000
94.3259	212.0000
94.3454	206.0000
94.3648	192.0000
94.3843	216.0000
94.4037	215.0000
94.4232	195.0000
94.4426	238.0000
94.4621	192.0000
94.4816	203.0000
94.5010	210.0000
94.5205	190.0000
94.5399	190.0000
94.5594	204.0000
94.5788	184.0000
94.5983	209.0000
94.6178	204.0000
94.6372	201.0000
94.6567	191.0000
94.6761	201.0000
94.6956	188.0000
94.7150	208.0000
94.7345	192.0000
94.7540	206.0000
94.7734	191.0000
94.7929	199.0000
94.8123	165.0000
94.8318	202.0000
94.8512	167.0000
94.8707	186.0000
94.8902	199.0000
94.9096	183.0000
94.9291	206.0000
94.9485	189.0000
94.9680	191.0000
94.9874	188.0000
95.0069	187.0000
95.0264	181.0000
95.0458	182.0000
95.0653	194.0000
95.0847	207.0000
95.1042	167.0000
95.1236	210.0000
95.1431	162.0000
95.1626	198.0000
95.1820	207.0000
95.2015	195.0000
95.2209	207.0000
95.2404	183.0000
95.2598	198.0000
95.2793	206.0000
95.2988	185.0000
95.3182	187.0000
95.3377	205.0000
95.3571	173.0000
95.3766	204.0000
95.3960	201.0000
95.4155	191.0000
95.4350	192.0000
95.4544	179.0000
95.4739	191.0000
95.4933	209.0000
95.5128	208.0000
95.5322	206.0000
95.5517	197.0000
95.5712	198.0000
95.5906	209.0000
95.6101	185.0000
95.6295	218.0000
95.6490	202.0000
95.6684	196.0000
95.6879	194.0000
95.7074	216.0000
95.7268	194.0000
95.7463	192.0000
95.7657	180.0000
95.7852	198.0000
95.8046	192.0000
95.8241	191.0000
95.8436	216.0000
95.8630	193.0000
95.8825	202.0000
95.9019	182.0000
95.9214	208.0000
95.9408	213.0000
95.9603	210.0000
95.9798	222.0000
95.9992	257.0000
96.0187	210.0000
96.0381	199.0000
96.0576	212.0000
96.0770	211.0000
96.0965	220.0000
96.1160	198.0000
96.1354	223.0000
96.1549	203.0000
96.1743	220.0000
96.1938	208.0000
96.2132	236.0000
96.2327	216.0000
96.2522	235.0000
96.2716	237.0000
96.2911	218.0000
96.3105	216.0000
96.3300	204.0000
96.3494	216.0000
96.3689	235.0000
96.3884	217.0000
96.4078	217.0000
96.4273	229.0000
96.4467	234.0000
96.4662	200.0000
96.4856	224.0000
96.5051	217.0000
96.5246	193.0000
96.5440	245.0000
96.5635	225.0000
96.5829	205.0000
96.6024	206.0000
96.6218	196.0000
96.6413	190.0000
96.6608	188.0000
96.6802	190.0000
96.6997	221.0000
96.7191	210.0000
96.7386	207.0000
96.7580	217.0000
96.7775	213.0000
96.7969	187.0000
96.8164	194.0000
96.8359	213.0000
96.8553	188.0000
96.8748	207.0000
96.8942	176.0000
96.9137	183.0000
96.9331	182.0000
96.9526	201.0000
96.9721	198.0000
96.9915	179.0000
97.0110	185.0000
97.0304	211.0000
97.0499	194.0000
97.0693	171.0000
97.0888	199.0000
97.1083	168.0000
97.1277	194.0000
97.1472	173.0000
97.1666	192.0000
97.1861	190.0000
97.2055	190.0000
97.2250	192.0000
97.2445	192.0000
97.2639	177.0000
97.2834	199.0000
97.3028	192.0000
97.3223	170.0000
97.3417	187.0000
97.3612	186.0000
97.3807	205.0000
97.4001	188.0000
97.4196	204.0000
97.4390	185.0000
97.4585	176.0000
97.4779	187.0000
97.4974	190.0000
97.5169	207.0000
97.5363	188.0000
97.5558	172.0000
97.5752	182.0000
97.5947	173.0000
97.6141	179.0000
97.6336	158.0000
97.6531	168.0000
97.6725	204.0000
97.6920	188.0000
97.7114	197.0000
97.7309	193.0000
97.7503	195.0000
97.7698	215.0000
97.7893	181.0000
97.8087	206.0000
97.8282	185.0000
97.8476	195.0000
97.8671	176.0000
97.8865	184.0000
97.9060	182.0000
97.9255	187.0000
97.9449	191.0000
97.9644	197.0000
97.9838	179.0000
98.0033	176.0000
98.0227	175.0000
98.0422	190.0000
98.0617	185.0000
98.0811	206.0000
98.1006	186.0000
98.1200	185.0000
98.1395	209.0000
98.1589	183.0000
98.1784	193.0000
98.1979	187.0000
98.2173	188.0000
98.2368	182.0000
98.2562	206.0000
98.2757	180.0000
98.2951	206.0000
98.3146	183.0000
98.3341	178.0000
98.3535	195.0000
98.3730	208.0000
98.3924	197.0000
98.4119	181.0000
98.4313	179.0000
98.4508	214.0000
98.4703	175.0000
98.4897	190.0000
98.5092	214.0000
98.5286	197.0000
98.5481	189.0000
98.5675	186.0000
98.5870	212.0000
98.6065	203.0000
98.6259	177.0000
98.6454	194.0000
98.6648	181.0000
98.6843	185.0000
98.7037	192.0000
98.7232	215.0000
98.7427	168.0000
98.7621	198.0000
98.7816	175.0000
98.8010	167.0000
98.8205	168.0000
98.8399	206.0000
98.8594	197.0000
98.8789	184.0000
98.8983	205.0000
98.9178	200.0000
98.9372	167.0000
98.9567	176.0000
98.9761	201.0000
98.9956	175.0000
99.0151	190.0000
99.0345	200.0000
99.0540	176.0000
99.0734	183.0000
99.0929	167.0000
99.1123	184.0000
99.1318	195.0000
99.1513	181.0000
99.1707	209.0000
99.1902	194.0000
99.2096	158.0000
99.2291	188.0000
99.2485	183.0000
99.2680	185.0000
99.2875	178.0000
99.3069	176.0000
99.3264	169.0000
99.3458	176.0000
99.3653	160.0000
99.3847	205.0000
99.4042	195.0000
99.4237	178.0000
99.4431	196.0000
99.4626	205.0000
99.4820	182.0000
99.5015	165.0000
99.5209	184.0000
99.5404	191.0000
99.5598	182.0000
99.5793	178.0000
99.5988	170.0000
99.6182	204.0000
99.6377	188.0000
99.6571	171.0000
99.6766	187.0000
99.6960	175.0000
99.7155	192.0000
99.7350	162.0000
99.7544	181.0000
99.7739	163.0000
99.7933	202.0000
99.8128	162.0000
99.8322	167.0000
99.8517	170.0000
99.8712	159.0000
99.8906	189.0000
99.9101	191.0000
99.9295	194.0000
99.9490	193.0000
99.9684	193.0000
99.9879	195.0000
100.0074	188.0000
