30.0009	85.0000
30.0204	101.0000
30.0398	97.0000
30.0593	116.0000
30.0787	109.0000
30.0982	106.0000
30.1177	96.0000
30.1371	97.0000
30.1566	88.0000
30.1760	100.0000
30.1955	99.0000
30.2149	99.0000
30.2344	91.0000
30.2539	78.0000
30.2733	87.0000
30.2928	102.0000
30.3122	109.0000
30.3317	84.0000
30.3511	89.0000
30.3706	82.0000
30.3901	97.0000
30.4095	99.0000
30.4290	95.0000
30.4484	94.0000
30.4679	101.0000
30.4873	103.0000
30.5068	96.0000
30.5263	114.0000
30.5457	92.0000
30.5652	86.0000
30.5846	99.0000
30.6041	101.0000
30.6235	89.0000
30.6430	97.0000
30.6625	80.0000
30.6819	94.0000
30.7014	99.0000
30.7208	94.0000
30.7403	91.0000
30.7597	90.0000
30.7792	87.0000
30.7987	94.0000
30.8181	96.0000
30.8376	107.0000
30.8570	77.0000
30.8765	99.0000
30.8959	91.0000
30.9154	101.0000
30.9349	85.0000
30.9543	92.0000
30.9738	89.0000
30.9932	102.0000
31.0127	101.0000
31.0321	100.0000
31.0516	88.0000
31.0711	82.0000
31.0905	90.0000
31.1100	75.0000
31.1294	90.0000
31.1489	96.0000
31.1683	92.0000
31.1878	100.0000
31.2073	84.0000
31.2267	95.0000
31.2462	96.0000
31.2656	81.0000
31.2851	88.0000
31.3045	90.0000
31.3240	117.0000
31.3435	87.0000
31.3629	85.0000
31.3824	102.0000
31.4018	97.0000
31.4213	85.0000
31.4407	89.0000
31.4602	103.0000
31.4797	92.0000
31.4991	96.0000
31.5186	101.0000
31.5380	82.0000
31.5575	87.0000
31.5769	86.0000
31.5964	95.0000
31.6159	88.0000
31.6353	92.0000
31.6548	72.0000
31.6742	97.0000
31.6937	96.0000
31.7131	96.0000
31.7326	97.0000
31.7521	78.0000
31.7715	94.0000
31.7910	83.0000
31.8104	90.0000
31.8299	114.0000
31.8493	86.0000
31.8688	78.0000
31.8883	87.0000
31.9077	83.0000
31.9272	93.0000
31.9466	95.0000
31.9661	80.0000
31.9855	88.0000
32.0050	91.0000
32.0245	86.0000
32.0439	102.0000
32.0634	93.0000
32.0828	78.0000
32.1023	96.0000
32.1217	95.0000
32.1412	94.0000
32.1607	79.0000
32.1801	101.0000
32.1996	91.0000
32.2190	96.0000
32.2385	97.0000
32.2579	75.0000
32.2774	95.0000
32.2969	99.0000
32.3163	89.0000
32.3358	90.0000
32.3552	110.0000
32.3747	79.0000
32.3941	98.0000
32.4136	86.0000
32.4331	89.0000
32.4525	93.0000
32.4720	77.0000
32.4914	97.0000
32.5109	84.0000
32.5303	96.0000
32.5498	87.0000
32.5692	106.0000
32.5887	93.0000
32.6082	94.0000
32.6276	88.0000
32.6471	104.0000
32.6665	94.0000
32.6860	93.0000
32.7054	112.0000
32.7249	99.0000
32.7444	90.0000
32.7638	68.0000
32.7833	116.0000
32.8027	88.0000
32.8222	112.0000
32.8416	82.0000
32.8611	86.0000
32.8806	86.0000
32.9000	107.0000
32.9195	83.0000
32.9389	93.0000
32.9584	92.0000
32.9778	84.0000
32.9973	81.0000
33.0168	96.0000
33.0362	83.0000
33.0557	107.0000
33.0751	86.0000
33.0946	97.0000
33.1140	102.0000
33.1335	95.0000
33.1530	94.0000
33.1724	118.0000
33.1919	82.0000
33.2113	79.0000
33.2308	96.0000
33.2502	106.0000
33.2697	98.0000
33.2892	95.0000
33.3086	97.0000
33.3281	85.0000
33.3475	92.0000
33.3670	85.0000
33.3864	89.0000
33.4059	92.0000
33.4254	94.0000
33.4448	123.0000
33.4643	97.0000
33.4837	88.0000
33.5032	105.0000
33.5226	83.0000
33.5421	85.0000
33.5616	96.0000
33.5810	102.0000
33.6005	80.0000
33.6199	106.0000
33.6394	103.0000
33.6588	112.0000
33.6783	102.0000
33.6978	89.0000
33.7172	110.0000
33.7367	80.0000
33.7561	85.0000
33.7756	91.0000
33.7950	94.0000
33.8145	106.0000
33.8340	80.0000
33.8534	93.0000
33.8729	107.0000
33.8923	104.0000
33.9118	97.0000
33.9312	101.0000
33.9507	97.0000
33.9702	82.0000
33.9896	92.0000
34.0091	97.0000
34.0285	105.0000
34.0480	96.0000
34.0674	90.0000
34.0869	97.0000
34.1064	95.0000
34.1258	80.0000
34.1453	84.0000
34.1647	106.0000
34.1842	93.0000
34.2036	86.0000
34.2231	77.0000
34.2426	112.0000
34.2620	81.0000
34.2815	104.0000
34.3009	87.0000
34.3204	106.0000
34.3398	84.0000
34.3593	85.0000
34.3788	97.0000
34.3982	99.0000
34.4177	107.0000
34.4371	101.0000
34.4566	103.0000
34.4760	96.0000
34.4955	111.0000
34.5150	109.0000
34.5344	72.0000
34.5539	95.0000
34.5733	80.0000
34.5928	99.0000
34.6122	98.0000
34.6317	89.0000
34.6512	104.0000
34.6706	83.0000
34.6901	110.0000
34.7095	105.0000
34.7290	99.0000
34.7484	107.0000
34.7679	102.0000
34.7874	103.0000
34.8068	104.0000
34.8263	103.0000
34.8457	106.0000
34.8652	99.0000
34.8846	108.0000
34.9041	103.0000
34.9236	83.0000
34.9430	96.0000
34.9625	96.0000
34.9819	89.0000
35.0014	109.0000
35.0208	92.0000
35.0403	109.0000
35.0598	100.0000
35.0792	100.0000
35.0987	74.0000
35.1181	88.0000
35.1376	106.0000
35.1570	99.0000
35.1765	101.0000
35.1960	125.0000
35.2154	104.0000
35.2349	100.0000
35.2543	102.0000
35.2738	82.0000
35.2932	105.0000
35.3127	79.0000
35.3322	98.0000
35.3516	91.0000
35.3711	98.0000
35.3905	108.0000
35.4100	112.0000
35.4294	100.0000
35.4489	81.0000
35.4683	102.0000
35.4878	95.0000
35.5073	97.0000
35.5267	84.0000
35.5462	113.0000
35.5656	90.0000
35.5851	91.0000
35.6045	107.0000
35.6240	84.0000
35.6435	95.0000
35.6629	105.0000
35.6824	96.0000
35.7018	105.0000
35.7213	112.0000
35.7407	110.0000
35.7602	88.0000
35.7797	83.0000
35.7991	100.0000
35.8186	107.0000
35.8380	102.0000
35.8575	93.0000
35.8769	93.0000
35.8964	93.0000
35.9159	106.0000
35.9353	101.0000
35.9548	107.0000
35.9742	84.0000
35.9937	109.0000
36.0131	99.0000
36.0326	103.0000
36.0521	117.0000
36.0715	126.0000
36.0910	86.0000
36.1104	111.0000
36.1299	102.0000
36.1493	113.0000
36.1688	86.0000
36.1883	107.0000
36.2077	96.0000
36.2272	111.0000
36.2466	101.0000
36.2661	90.0000
36.2855	116.0000
36.3050	109.0000
36.3245	108.0000
36.3439	104.0000
36.3634	103.0000
36.3828	92.0000
36.4023	104.0000
36.4217	96.0000
36.4412	95.0000
36.4607	79.0000
36.4801	109.0000
36.4996	95.0000
36.5190	120.0000
36.5385	106.0000
36.5579	91.0000
36.5774	100.0000
36.5969	98.0000
36.6163	114.0000
36.6358	117.0000
36.6552	93.0000
36.6747	106.0000
36.6941	95.0000
36.7136	105.0000
36.7331	100.0000
36.7525	97.0000
36.7720	98.0000
36.7914	86.0000
36.8109	104.0000
36.8303	112.0000
36.8498	112.0000
36.8693	98.0000
36.8887	103.0000
36.9082	91.0000
36.9276	93.0000
36.9471	101.0000
36.9665	91.0000
36.9860	107.0000
37.0055	100.0000
37.0249	99.0000
37.0444	107.0000
37.0638	98.0000
37.0833	118.0000
37.1027	114.0000
37.1222	112.0000
37.1417	112.0000
37.1611	106.0000
37.1806	100.0000
37.2000	116.0000
37.2195	96.0000
37.2389	97.0000
37.2584	111.0000
37.2779	98.0000
37.2973	110.0000
37.3168	101.0000
37.3362	119.0000
37.3557	94.0000
37.3751	109.0000
37.3946	109.0000
37.4141	121.0000
37.4335	110.0000
37.4530	121.0000
37.4724	103.0000
37.4919	109.0000
37.5113	128.0000
37.5308	118.0000
37.5503	107.0000
37.5697	110.0000
37.5892	92.0000
37.6086	85.0000
37.6281	107.0000
37.6475	88.0000
37.6670	84.0000
37.6865	123.0000
37.7059	95.0000
37.7254	103.0000
37.7448	108.0000
37.7643	106.0000
37.7837	110.0000
37.8032	103.0000
37.8227	132.0000
37.8421	102.0000
37.8616	107.0000
37.8810	88.0000
37.9005	123.0000
37.9199	88.0000
37.9394	106.0000
37.9589	98.0000
37.9783	105.0000
37.9978	119.0000
38.0172	93.0000
38.0367	119.0000
38.0561	110.0000
38.0756	128.0000
38.0951	106.0000
38.1145	107.0000
38.1340	109.0000
38.1534	107.0000
38.1729	107.0000
38.1923	93.0000
38.2118	112.0000
38.2312	122.0000
38.2507	107.0000
38.2702	110.0000
38.2896	102.0000
38.3091	109.0000
38.3285	120.0000
38.3480	125.0000
38.3674	111.0000
38.3869	120.0000
38.4064	103.0000
38.4258	91.0000
38.4453	120.0000
38.4647	117.0000
38.4842	100.0000
38.5036	103.0000
38.5231	97.0000
38.5426	97.0000
38.5620	103.0000
38.5815	106.0000
38.6009	98.0000
38.6204	123.0000
38.6398	104.0000
38.6593	100.0000
38.6788	98.0000
38.6982	102.0000
38.7177	94.0000
38.7371	115.0000
38.7566	101.0000
38.7760	115.0000
38.7955	82.0000
38.8150	117.0000
38.8344	96.0000
38.8539	115.0000
38.8733	94.0000
38.8928	112.0000
38.9122	105.0000
38.9317	117.0000
38.9512	104.0000
38.9706	129.0000
38.9901	105.0000
39.0095	114.0000
39.0290	124.0000
39.0484	111.0000
39.0679	122.0000
39.0874	111.0000
39.1068	113.0000
39.1263	104.0000
39.1457	104.0000
39.1652	117.0000
39.1846	97.0000
39.2041	109.0000
39.2236	98.0000
39.2430	127.0000
39.2625	95.0000
39.2819	100.0000
39.3014	108.0000
39.3208	104.0000
39.3403	103.0000
39.3598	105.0000
39.3792	100.0000
39.3987	115.0000
39.4181	120.0000
39.4376	117.0000
39.4570	102.0000
39.4765	111.0000
39.4960	108.0000
39.5154	111.0000
39.5349	112.0000
39.5543	109.0000
39.5738	109.0000
39.5932	106.0000
39.6127	110.0000
39.6322	126.0000
39.6516	114.0000
39.6711	112.0000
39.6905	119.0000
39.7100	106.0000
39.7294	125.0000
39.7489	101.0000
39.7684	107.0000
39.7878	98.0000
39.8073	129.0000
39.8267	116.0000
39.8462	105.0000
39.8656	109.0000
39.8851	103.0000
39.9046	122.0000
39.9240	101.0000
39.9435	122.0000
39.9629	102.0000
39.9824	121.0000
40.0018	109.0000
40.0213	107.0000
40.0408	128.0000
40.0602	101.0000
40.0797	115.0000
40.0991	108.0000
40.1186	109.0000
40.1380	119.0000
40.1575	113.0000
40.1770	122.0000
40.1964	104.0000
40.2159	140.0000
40.2353	113.0000
40.2548	98.0000
40.2742	130.0000
40.2937	99.0000
40.3132	97.0000
40.3326	130.0000
40.3521	138.0000
40.3715	119.0000
40.3910	94.0000
40.4104	113.0000
40.4299	126.0000
40.4494	97.0000
40.4688	95.0000
40.4883	107.0000
40.5077	106.0000
40.5272	100.0000
40.5466	113.0000
40.5661	103.0000
40.5856	97.0000
40.6050	122.0000
40.6245	105.0000
40.6439	130.0000
40.6634	114.0000
40.6828	107.0000
40.7023	141.0000
40.7218	109.0000
40.7412	115.0000
40.7607	106.0000
40.7801	119.0000
40.7996	103.0000
40.8190	117.0000
40.8385	105.0000
40.8580	121.0000
40.8774	91.0000
40.8969	118.0000
40.9163	116.0000
40.9358	96.0000
40.9552	120.0000
40.9747	118.0000
40.9941	123.0000
41.0136	104.0000
41.0331	109.0000
41.0525	110.0000
41.0720	128.0000
41.0914	108.0000
41.1109	101.0000
41.1303	105.0000
41.1498	111.0000
41.1693	114.0000
41.1887	109.0000
41.2082	130.0000
41.2276	110.0000
41.2471	105.0000
41.2665	120.0000
41.2860	98.0000
41.3055	117.0000
41.3249	145.0000
41.3444	109.0000
41.3638	117.0000
41.3833	100.0000
41.4027	120.0000
41.4222	98.0000
41.4417	109.0000
41.4611	110.0000
41.4806	106.0000
41.5000	125.0000
41.5195	122.0000
41.5389	123.0000
41.5584	124.0000
41.5779	122.0000
41.5973	141.0000
41.6168	119.0000
41.6362	123.0000
41.6557	112.0000
41.6751	109.0000
41.6946	113.0000
41.7141	115.0000
41.7335	124.0000
41.7530	121.0000
41.7724	107.0000
41.7919	116.0000
41.8113	111.0000
41.8308	111.0000
41.8503	103.0000
41.8697	113.0000
41.8892	113.0000
41.9086	104.0000
41.9281	117.0000
41.9475	115.0000
41.9670	107.0000
41.9865	108.0000
42.0059	140.0000
42.0254	110.0000
42.0448	112.0000
42.0643	121.0000
42.0837	117.0000
42.1032	114.0000
42.1227	113.0000
42.1421	108.0000
42.1616	113.0000
42.1810	119.0000
42.2005	123.0000
42.2199	132.0000
42.2394	108.0000
42.2589	122.0000
42.2783	122.0000
42.2978	115.0000
42.3172	103.0000
42.3367	111.0000
42.3561	133.0000
42.3756	111.0000
42.3951	122.0000
42.4145	114.0000
42.4340	100.0000
42.4534	116.0000
42.4729	109.0000
42.4923	99.0000
42.5118	124.0000
42.5313	139.0000
42.5507	108.0000
42.5702	135.0000
42.5896	96.0000
42.6091	115.0000
42.6285	120.0000
42.6480	133.0000
42.6675	139.0000
42.6869	126.0000
42.7064	122.0000
42.7258	118.0000
42.7453	117.0000
42.7647	116.0000
42.7842	115.0000
42.8037	128.0000
42.8231	121.0000
42.8426	111.0000
42.8620	130.0000
42.8815	107.0000
42.9009	101.0000
42.9204	130.0000
42.9399	109.0000
42.9593	118.0000
42.9788	122.0000
42.9982	129.0000
43.0177	123.0000
43.0371	146.0000
43.0566	121.0000
43.0761	132.0000
43.0955	116.0000
43.1150	110.0000
43.1344	152.0000
43.1539	122.0000
43.1733	118.0000
43.1928	124.0000
43.2123	142.0000
43.2317	138.0000
43.2512	142.0000
43.2706	135.0000
43.2901	144.0000
43.3095	140.0000
43.3290	159.0000
43.3485	145.0000
43.3679	150.0000
43.3874	147.0000
43.4068	134.0000
43.4263	177.0000
43.4457	163.0000
43.4652	141.0000
43.4847	145.0000
43.5041	168.0000
43.5236	156.0000
43.5430	163.0000
43.5625	166.0000
43.5819	197.0000
43.6014	168.0000
43.6209	198.0000
43.6403	193.0000
43.6598	202.0000
43.6792	239.0000
43.6987	252.0000
43.7181	243.0000
43.7376	250.0000
43.7570	291.0000
43.7765	304.0000
43.7960	326.0000
43.8154	347.0000
43.8349	379.0000
43.8543	389.0000
43.8738	450.0000
43.8932	486.0000
43.9127	490.0000
43.9322	521.0000
43.9516	497.0000
43.9711	542.0000
43.9905	543.0000
44.0100	553.0000
44.0294	547.0000
44.0489	466.0000
44.0684	478.0000
44.0878	500.0000
44.1073	462.0000
44.1267	440.0000
44.1462	432.0000
44.1656	357.0000
44.1851	384.0000
44.2046	353.0000
44.2240	335.0000
44.2435	321.0000
44.2629	285.0000
44.2824	266.0000
44.3018	250.0000
44.3213	232.0000
44.3408	232.0000
44.3602	247.0000
44.3797	220.0000
44.3991	183.0000
44.4186	223.0000
44.4380	199.0000
44.4575	195.0000
44.4770	191.0000
44.4964	203.0000
44.5159	177.0000
44.5353	171.0000
44.5548	190.0000
44.5742	177.0000
44.5937	174.0000
44.6132	138.0000
44.6326	147.0000
44.6521	173.0000
44.6715	131.0000
44.6910	147.0000
44.7104	150.0000
44.7299	132.0000
44.7494	120.0000
44.7688	137.0000
44.7883	126.0000
44.8077	126.0000
44.8272	160.0000
44.8466	155.0000
44.8661	146.0000
44.8856	125.0000
44.9050	146.0000
44.9245	148.0000
44.9439	129.0000
44.9634	131.0000
44.9828	133.0000
45.0023	135.0000
45.0218	115.0000
45.0412	121.0000
45.0607	131.0000
45.0801	113.0000
45.0996	107.0000
45.1190	139.0000
45.1385	136.0000
45.1580	114.0000
45.1774	137.0000
45.1969	121.0000
45.2163	127.0000
45.2358	138.0000
45.2552	126.0000
45.2747	132.0000
45.2942	114.0000
45.3136	133.0000
45.3331	117.0000
45.3525	125.0000
45.3720	125.0000
45.3914	120.0000
45.4109	114.0000
45.4304	110.0000
45.4498	135.0000
45.4693	130.0000
45.4887	129.0000
45.5082	93.0000
45.5276	121.0000
45.5471	125.0000
45.5666	95.0000
45.5860	115.0000
45.6055	124.0000
45.6249	125.0000
45.6444	106.0000
45.6638	136.0000
45.6833	110.0000
45.7028	132.0000
45.7222	114.0000
45.7417	121.0000
45.7611	99.0000
45.7806	129.0000
45.8000	146.0000
45.8195	112.0000
45.8390	114.0000
45.8584	131.0000
45.8779	109.0000
45.8973	119.0000
45.9168	108.0000
45.9362	118.0000
45.9557	121.0000
45.9752	130.0000
45.9946	117.0000
46.0141	106.0000
46.0335	113.0000
46.0530	128.0000
46.0724	115.0000
46.0919	132.0000
46.1114	128.0000
46.1308	110.0000
46.1503	122.0000
46.1697	127.0000
46.1892	117.0000
46.2086	99.0000
46.2281	100.0000
46.2476	122.0000
46.2670	101.0000
46.2865	124.0000
46.3059	114.0000
46.3254	116.0000
46.3448	130.0000
46.3643	124.0000
46.3838	136.0000
46.4032	113.0000
46.4227	120.0000
46.4421	136.0000
46.4616	116.0000
46.4810	95.0000
46.5005	124.0000
46.5199	119.0000
46.5394	138.0000
46.5589	113.0000
46.5783	124.0000
46.5978	117.0000
46.6172	126.0000
46.6367	108.0000
46.6561	140.0000
46.6756	130.0000
46.6951	126.0000
46.7145	103.0000
46.7340	126.0000
46.7534	99.0000
46.7729	104.0000
46.7923	109.0000
46.8118	126.0000
46.8313	108.0000
46.8507	129.0000
46.8702	109.0000
46.8896	125.0000
46.9091	121.0000
46.9285	104.0000
46.9480	117.0000
46.9675	122.0000
46.9869	110.0000
47.0064	106.0000
47.0258	121.0000
47.0453	123.0000
47.0647	117.0000
47.0842	141.0000
47.1037	118.0000
47.1231	130.0000
47.1426	108.0000
47.1620	112.0000
47.1815	116.0000
47.2009	131.0000
47.2204	95.0000
47.2399	130.0000
47.2593	118.0000
47.2788	140.0000
47.2982	102.0000
47.3177	116.0000
47.3371	108.0000
47.3566	118.0000
47.3761	117.0000
47.3955	128.0000
47.4150	132.0000
47.4344	123.0000
47.4539	135.0000
47.4733	125.0000
47.4928	130.0000
47.5123	122.0000
47.5317	114.0000
47.5512	103.0000
47.5706	105.0000
47.5901	89.0000
47.6095	101.0000
47.6290	87.0000
47.6485	114.0000
47.6679	82.0000
47.6874	115.0000
47.7068	109.0000
47.7263	103.0000
47.7457	114.0000
47.7652	115.0000
47.7847	118.0000
47.8041	125.0000
47.8236	111.0000
47.8430	101.0000
47.8625	129.0000
47.8819	126.0000
47.9014	118.0000
47.9209	119.0000
47.9403	144.0000
47.9598	109.0000
47.9792	126.0000
47.9987	137.0000
48.0181	136.0000
48.0376	113.0000
48.0571	129.0000
48.0765	118.0000
48.0960	129.0000
48.1154	103.0000
48.1349	112.0000
48.1543	116.0000
48.1738	117.0000
48.1933	103.0000
48.2127	115.0000
48.2322	111.0000
48.2516	114.0000
48.2711	110.0000
48.2905	127.0000
48.3100	142.0000
48.3295	121.0000
48.3489	108.0000
48.3684	99.0000
48.3878	124.0000
48.4073	120.0000
48.4267	106.0000
48.4462	119.0000
48.4657	103.0000
48.4851	111.0000
48.5046	133.0000
48.5240	94.0000
48.5435	113.0000
48.5629	127.0000
48.5824	104.0000
48.6019	114.0000
48.6213	106.0000
48.6408	150.0000
48.6602	122.0000
48.6797	103.0000
48.6991	123.0000
48.7186	119.0000
48.7381	121.0000
48.7575	141.0000
48.7770	130.0000
48.7964	134.0000
48.8159	127.0000
48.8353	135.0000
48.8548	102.0000
48.8743	119.0000
48.8937	109.0000
48.9132	107.0000
48.9326	121.0000
48.9521	111.0000
48.9715	91.0000
48.9910	117.0000
49.0105	110.0000
49.0299	121.0000
49.0494	126.0000
49.0688	111.0000
49.0883	123.0000
49.1077	109.0000
49.1272	137.0000
49.1467	110.0000
49.1661	115.0000
49.1856	108.0000
49.2050	116.0000
49.2245	104.0000
49.2439	124.0000
49.2634	128.0000
49.2829	122.0000
49.3023	135.0000
49.3218	110.0000
49.3412	125.0000
49.3607	131.0000
49.3801	126.0000
49.3996	124.0000
49.4190	114.0000
49.4385	124.0000
49.4580	116.0000
49.4774	146.0000
49.4969	125.0000
49.5163	101.0000
49.5358	128.0000
49.5552	118.0000
49.5747	137.0000
49.5942	120.0000
49.6136	113.0000
49.6331	104.0000
49.6525	117.0000
49.6720	111.0000
49.6914	134.0000
49.7109	130.0000
49.7304	117.0000
49.7498	107.0000
49.7693	107.0000
49.7887	127.0000
49.8082	138.0000
49.8276	138.0000
49.8471	115.0000
49.8666	135.0000
49.8860	148.0000
49.9055	141.0000
49.9249	112.0000
49.9444	135.0000
49.9638	134.0000
49.9833	148.0000
50.0028	130.0000
50.0222	144.0000
50.0417	118.0000
50.0611	132.0000
50.0806	142.0000
50.1000	111.0000
50.1195	119.0000
50.1390	142.0000
50.1584	137.0000
50.1779	143.0000
50.1973	154.0000
50.2168	108.0000
50.2362	128.0000
50.2557	142.0000
50.2752	140.0000
50.2946	146.0000
50.3141	132.0000
50.3335	133.0000
50.3530	136.0000
50.3724	144.0000
50.3919	151.0000
50.4114	134.0000
50.4308	165.0000
50.4503	155.0000
50.4697	149.0000
50.4892	157.0000
50.5086	153.0000
50.5281	152.0000
50.5476	140.0000
50.5670	165.0000
50.5865	146.0000
50.6059	148.0000
50.6254	197.0000
50.6448	179.0000
50.6643	156.0000
50.6838	187.0000
50.7032	187.0000
50.7227	189.0000
50.7421	193.0000
50.7616	175.0000
50.7810	193.0000
50.8005	201.0000
50.8200	190.0000
50.8394	228.0000
50.8589	215.0000
50.8783	237.0000
50.8978	227.0000
50.9172	228.0000
50.9367	230.0000
50.9562	229.0000
50.9756	251.0000
50.9951	264.0000
51.0145	262.0000
51.0340	286.0000
51.0534	245.0000
51.0729	270.0000
51.0924	264.0000
51.1118	278.0000
51.1313	278.0000
51.1507	236.0000
51.1702	224.0000
51.1896	237.0000
51.2091	217.0000
51.2286	208.0000
51.2480	231.0000
51.2675	216.0000
51.2869	206.0000
51.3064	224.0000
51.3258	188.0000
51.3453	196.0000
51.3648	164.0000
51.3842	178.0000
51.4037	183.0000
51.4231	165.0000
51.4426	148.0000
51.4620	164.0000
51.4815	165.0000
51.5010	156.0000
51.5204	152.0000
51.5399	152.0000
51.5593	155.0000
51.5788	146.0000
51.5982	166.0000
51.6177	138.0000
51.6372	130.0000
51.6566	130.0000
51.6761	139.0000
51.6955	139.0000
51.7150	135.0000
51.7344	124.0000
51.7539	136.0000
51.7734	121.0000
51.7928	143.0000
51.8123	136.0000
51.8317	139.0000
51.8512	146.0000
51.8706	141.0000
51.8901	126.0000
51.9096	128.0000
51.9290	117.0000
51.9485	125.0000
51.9679	141.0000
51.9874	144.0000
52.0068	131.0000
52.0263	154.0000
52.0458	125.0000
52.0652	117.0000
52.0847	134.0000
52.1041	133.0000
52.1236	145.0000
52.1430	129.0000
52.1625	103.0000
52.1819	130.0000
52.2014	113.0000
52.2209	108.0000
52.2403	121.0000
52.2598	126.0000
52.2792	129.0000
52.2987	134.0000
52.3181	132.0000
52.3376	131.0000
52.3571	134.0000
52.3765	114.0000
52.3960	126.0000
52.4154	102.0000
52.4349	102.0000
52.4543	113.0000
52.4738	90.0000
52.4933	122.0000
52.5127	124.0000
52.5322	126.0000
52.5516	111.0000
52.5711	119.0000
52.5905	128.0000
52.6100	120.0000
52.6295	117.0000
52.6489	133.0000
52.6684	113.0000
52.6878	120.0000
52.7073	97.0000
52.7267	117.0000
52.7462	104.0000
52.7657	123.0000
52.7851	127.0000
52.8046	98.0000
52.8240	125.0000
52.8435	140.0000
52.8629	130.0000
52.8824	101.0000
52.9019	116.0000
52.9213	121.0000
52.9408	111.0000
52.9602	104.0000
52.9797	108.0000
52.9991	116.0000
53.0186	105.0000
53.0381	112.0000
53.0575	131.0000
53.0770	115.0000
53.0964	120.0000
53.1159	111.0000
53.1353	123.0000
53.1548	113.0000
53.1743	110.0000
53.1937	111.0000
53.2132	105.0000
53.2326	140.0000
53.2521	120.0000
53.2715	110.0000
53.2910	118.0000
53.3105	106.0000
53.3299	120.0000
53.3494	123.0000
53.3688	99.0000
53.3883	112.0000
53.4077	112.0000
53.4272	112.0000
53.4467	111.0000
53.4661	117.0000
53.4856	107.0000
53.5050	123.0000
53.5245	127.0000
53.5439	120.0000
53.5634	115.0000
53.5829	129.0000
53.6023	115.0000
53.6218	102.0000
53.6412	121.0000
53.6607	135.0000
53.6801	135.0000
53.6996	110.0000
53.7191	111.0000
53.7385	117.0000
53.7580	115.0000
53.7774	128.0000
53.7969	115.0000
53.8163	112.0000
53.8358	119.0000
53.8553	105.0000
53.8747	114.0000
53.8942	97.0000
53.9136	121.0000
53.9331	122.0000
53.9525	96.0000
53.9720	98.0000
53.9915	129.0000
54.0109	105.0000
54.0304	118.0000
54.0498	127.0000
54.0693	103.0000
54.0887	112.0000
54.1082	129.0000
54.1277	125.0000
54.1471	132.0000
54.1666	108.0000
54.1860	99.0000
54.2055	130.0000
54.2249	98.0000
54.2444	125.0000
54.2639	119.0000
54.2833	123.0000
54.3028	108.0000
54.3222	107.0000
54.3417	114.0000
54.3611	123.0000
54.3806	130.0000
54.4001	118.0000
54.4195	103.0000
54.4390	112.0000
54.4584	108.0000
54.4779	131.0000
54.4973	111.0000
54.5168	115.0000
54.5363	101.0000
54.5557	103.0000
54.5752	120.0000
54.5946	116.0000
54.6141	111.0000
54.6335	105.0000
54.6530	110.0000
54.6725	131.0000
54.6919	122.0000
54.7114	120.0000
54.7308	116.0000
54.7503	117.0000
54.7697	109.0000
54.7892	93.0000
54.8087	108.0000
54.8281	110.0000
54.8476	130.0000
54.8670	110.0000
54.8865	105.0000
54.9059	110.0000
54.9254	128.0000
54.9448	127.0000
54.9643	130.0000
54.9838	120.0000
55.0032	108.0000
55.0227	94.0000
55.0421	118.0000
55.0616	113.0000
55.0810	130.0000
55.1005	126.0000
55.1200	124.0000
55.1394	114.0000
55.1589	118.0000
55.1783	102.0000
55.1978	112.0000
55.2172	109.0000
55.2367	116.0000
55.2562	111.0000
55.2756	93.0000
55.2951	123.0000
55.3145	109.0000
55.3340	123.0000
55.3534	114.0000
55.3729	117.0000
55.3924	112.0000
55.4118	136.0000
55.4313	119.0000
55.4507	130.0000
55.4702	128.0000
55.4896	116.0000
55.5091	120.0000
55.5286	120.0000
55.5480	141.0000
55.5675	125.0000
55.5869	132.0000
55.6064	122.0000
55.6258	115.0000
55.6453	120.0000
55.6648	106.0000
55.6842	126.0000
55.7037	122.0000
55.7231	110.0000
55.7426	134.0000
55.7620	117.0000
55.7815	116.0000
55.8010	132.0000
55.8204	128.0000
55.8399	110.0000
55.8593	119.0000
55.8788	121.0000
55.8982	126.0000
55.9177	133.0000
55.9372	114.0000
55.9566	139.0000
55.9761	132.0000
55.9955	113.0000
56.0150	108.0000
56.0344	118.0000
56.0539	127.0000
56.0734	102.0000
56.0928	140.0000
56.1123	129.0000
56.1317	122.0000
56.1512	104.0000
56.1706	120.0000
56.1901	117.0000
56.2096	122.0000
56.2290	123.0000
56.2485	109.0000
56.2679	109.0000
56.2874	128.0000
56.3068	123.0000
56.3263	107.0000
56.3458	106.0000
56.3652	107.0000
56.3847	114.0000
56.4041	124.0000
56.4236	124.0000
56.4430	120.0000
56.4625	102.0000
56.4820	133.0000
56.5014	126.0000
56.5209	146.0000
56.5403	123.0000
56.5598	118.0000
56.5792	118.0000
56.5987	131.0000
56.6182	115.0000
56.6376	132.0000
56.6571	111.0000
56.6765	118.0000
56.6960	95.0000
56.7154	109.0000
56.7349	116.0000
56.7544	125.0000
56.7738	115.0000
56.7933	102.0000
56.8127	117.0000
56.8322	118.0000
56.8516	125.0000
56.8711	114.0000
56.8906	136.0000
56.9100	132.0000
56.9295	109.0000
56.9489	101.0000
56.9684	103.0000
56.9878	103.0000
57.0073	121.0000
57.0268	104.0000
57.0462	101.0000
57.0657	116.0000
57.0851	108.0000
57.1046	99.0000
57.1240	119.0000
57.1435	114.0000
57.1630	135.0000
57.1824	129.0000
57.2019	122.0000
57.2213	125.0000
57.2408	129.0000
57.2602	131.0000
57.2797	112.0000
57.2992	119.0000
57.3186	114.0000
57.3381	130.0000
57.3575	115.0000
57.3770	133.0000
57.3964	119.0000
57.4159	139.0000
57.4354	120.0000
57.4548	91.0000
57.4743	122.0000
57.4937	97.0000
57.5132	129.0000
57.5326	125.0000
57.5521	117.0000
57.5716	107.0000
57.5910	122.0000
57.6105	121.0000
57.6299	128.0000
57.6494	146.0000
57.6688	116.0000
57.6883	113.0000
57.7077	104.0000
57.7272	138.0000
57.7467	136.0000
57.7661	118.0000
57.7856	134.0000
57.8050	109.0000
57.8245	132.0000
57.8439	128.0000
57.8634	125.0000
57.8829	117.0000
57.9023	128.0000
57.9218	111.0000
57.9412	108.0000
57.9607	121.0000
57.9801	108.0000
57.9996	118.0000
58.0191	99.0000
58.0385	117.0000
58.0580	112.0000
58.0774	107.0000
58.0969	112.0000
58.1163	111.0000
58.1358	117.0000
58.1553	142.0000
58.1747	116.0000
58.1942	130.0000
58.2136	111.0000
58.2331	119.0000
58.2525	116.0000
58.2720	114.0000
58.2915	121.0000
58.3109	119.0000
58.3304	128.0000
58.3498	123.0000
58.3693	115.0000
58.3887	99.0000
58.4082	127.0000
58.4277	115.0000
58.4471	98.0000
58.4666	117.0000
58.4860	113.0000
58.5055	110.0000
58.5249	101.0000
58.5444	121.0000
58.5639	123.0000
58.5833	108.0000
58.6028	118.0000
58.6222	135.0000
58.6417	119.0000
58.6611	108.0000
58.6806	124.0000
58.7001	116.0000
58.7195	114.0000
58.7390	132.0000
58.7584	115.0000
58.7779	122.0000
58.7973	120.0000
58.8168	98.0000
58.8363	123.0000
58.8557	124.0000
58.8752	124.0000
58.8946	121.0000
58.9141	103.0000
58.9335	128.0000
58.9530	129.0000
58.9725	116.0000
58.9919	141.0000
59.0114	113.0000
59.0308	122.0000
59.0503	109.0000
59.0697	105.0000
59.0892	101.0000
59.1087	125.0000
59.1281	119.0000
59.1476	98.0000
59.1670	130.0000
59.1865	148.0000
59.2059	110.0000
59.2254	120.0000
59.2449	144.0000
59.2643	119.0000
59.2838	116.0000
59.3032	123.0000
59.3227	114.0000
59.3421	108.0000
59.3616	120.0000
59.3811	102.0000
59.4005	137.0000
59.4200	101.0000
59.4394	120.0000
59.4589	131.0000
59.4783	114.0000
59.4978	124.0000
59.5173	104.0000
59.5367	123.0000
59.5562	112.0000
59.5756	146.0000
59.5951	128.0000
59.6145	128.0000
59.6340	132.0000
59.6535	138.0000
59.6729	123.0000
59.6924	117.0000
59.7118	114.0000
59.7313	112.0000
59.7507	139.0000
59.7702	127.0000
59.7897	112.0000
59.8091	108.0000
59.8286	118.0000
59.8480	116.0000
59.8675	140.0000
59.8869	121.0000
59.9064	118.0000
59.9259	108.0000
59.9453	124.0000
59.9648	113.0000
59.9842	120.0000
60.0037	133.0000
60.0231	115.0000
60.0426	116.0000
60.0621	118.0000
60.0815	133.0000
60.1010	126.0000
60.1204	111.0000
60.1399	115.0000
60.1593	99.0000
60.1788	131.0000
60.1983	128.0000
60.2177	129.0000
60.2372	132.0000
60.2566	126.0000
60.2761	121.0000
60.2955	125.0000
60.3150	109.0000
60.3345	117.0000
60.3539	136.0000
60.3734	133.0000
60.3928	117.0000
60.4123	119.0000
60.4317	125.0000
60.4512	120.0000
60.4706	119.0000
60.4901	113.0000
60.5096	127.0000
60.5290	129.0000
60.5485	108.0000
60.5679	130.0000
60.5874	132.0000
60.6068	112.0000
60.6263	139.0000
60.6458	130.0000
60.6652	111.0000
60.6847	118.0000
60.7041	111.0000
60.7236	102.0000
60.7430	128.0000
60.7625	116.0000
60.7820	116.0000
60.8014	99.0000
60.8209	120.0000
60.8403	111.0000
60.8598	98.0000
60.8792	127.0000
60.8987	118.0000
60.9182	122.0000
60.9376	117.0000
60.9571	120.0000
60.9765	126.0000
60.9960	118.0000
61.0154	120.0000
61.0349	114.0000
61.0544	101.0000
61.0738	95.0000
61.0933	116.0000
61.1127	111.0000
61.1322	113.0000
61.1516	111.0000
61.1711	116.0000
61.1906	122.0000
61.2100	105.0000
61.2295	121.0000
61.2489	133.0000
61.2684	111.0000
61.2878	105.0000
61.3073	123.0000
61.3268	117.0000
61.3462	116.0000
61.3657	112.0000
61.3851	104.0000
61.4046	133.0000
61.4240	114.0000
61.4435	123.0000
61.4630	112.0000
61.4824	117.0000
61.5019	109.0000
61.5213	115.0000
61.5408	129.0000
61.5602	122.0000
61.5797	111.0000
61.5992	127.0000
61.6186	142.0000
61.6381	114.0000
61.6575	112.0000
61.6770	110.0000
61.6964	106.0000
61.7159	119.0000
61.7354	136.0000
61.7548	127.0000
61.7743	121.0000
61.7937	143.0000
61.8132	131.0000
61.8326	124.0000
61.8521	123.0000
61.8716	103.0000
61.8910	142.0000
61.9105	129.0000
61.9299	145.0000
61.9494	110.0000
61.9688	116.0000
61.9883	132.0000
62.0078	117.0000
62.0272	129.0000
62.0467	140.0000
62.0661	124.0000
62.0856	124.0000
62.1050	121.0000
62.1245	125.0000
62.1440	117.0000
62.1634	111.0000
62.1829	107.0000
62.2023	101.0000
62.2218	129.0000
62.2412	123.0000
62.2607	116.0000
62.2802	107.0000
62.2996	108.0000
62.3191	110.0000
62.3385	137.0000
62.3580	98.0000
62.3774	138.0000
62.3969	110.0000
62.4164	129.0000
62.4358	122.0000
62.4553	106.0000
62.4747	123.0000
62.4942	121.0000
62.5136	120.0000
62.5331	125.0000
62.5526	116.0000
62.5720	112.0000
62.5915	112.0000
62.6109	126.0000
62.6304	107.0000
62.6498	127.0000
62.6693	104.0000
62.6888	107.0000
62.7082	108.0000
62.7277	123.0000
62.7471	121.0000
62.7666	123.0000
62.7860	138.0000
62.8055	117.0000
62.8250	118.0000
62.8444	99.0000
62.8639	108.0000
62.8833	128.0000
62.9028	132.0000
62.9222	102.0000
62.9417	117.0000
62.9612	99.0000
62.9806	132.0000
63.0001	132.0000
63.0195	120.0000
63.0390	133.0000
63.0584	112.0000
63.0779	109.0000
63.0974	121.0000
63.1168	106.0000
63.1363	125.0000
63.1557	122.0000
63.1752	112.0000
63.1946	105.0000
63.2141	127.0000
63.2336	111.0000
63.2530	110.0000
63.2725	110.0000
63.2919	108.0000
63.3114	130.0000
63.3308	99.0000
63.3503	107.0000
63.3697	131.0000
63.3892	103.0000
63.4087	125.0000
63.4281	119.0000
63.4476	121.0000
63.4670	136.0000
63.4865	114.0000
63.5059	126.0000
63.5254	143.0000
63.5449	139.0000
63.5643	110.0000
63.5838	119.0000
63.6032	114.0000
63.6227	126.0000
63.6421	105.0000
63.6616	124.0000
63.6811	157.0000
63.7005	112.0000
63.7200	131.0000
63.7394	118.0000
63.7589	129.0000
63.7783	129.0000
63.7978	118.0000
63.8173	117.0000
63.8367	133.0000
63.8562	132.0000
63.8756	113.0000
63.8951	117.0000
63.9145	101.0000
63.9340	115.0000
63.9535	113.0000
63.9729	113.0000
63.9924	123.0000
64.0118	103.0000
64.0313	133.0000
64.0507	134.0000
64.0702	119.0000
64.0897	133.0000
64.1091	119.0000
64.1286	124.0000
64.1480	104.0000
64.1675	123.0000
64.1869	140.0000
64.2064	120.0000
64.2259	124.0000
64.2453	122.0000
64.2648	114.0000
64.2842	129.0000
64.3037	123.0000
64.3231	134.0000
64.3426	135.0000
64.3621	120.0000
64.3815	113.0000
64.4010	125.0000
64.4204	132.0000
64.4399	127.0000
64.4593	116.0000
64.4788	106.0000
64.4983	137.0000
64.5177	117.0000
64.5372	122.0000
64.5566	119.0000
64.5761	110.0000
64.5955	129.0000
64.6150	97.0000
64.6345	128.0000
64.6539	93.0000
64.6734	126.0000
64.6928	135.0000
64.7123	120.0000
64.7317	152.0000
64.7512	125.0000
64.7707	125.0000
64.7901	115.0000
64.8096	115.0000
64.8290	119.0000
64.8485	118.0000
64.8679	110.0000
64.8874	117.0000
64.9069	113.0000
64.9263	127.0000
64.9458	118.0000
64.9652	117.0000
64.9847	142.0000
65.0041	125.0000
65.0236	108.0000
65.0431	120.0000
65.0625	135.0000
65.0820	116.0000
65.1014	109.0000
65.1209	128.0000
65.1403	112.0000
65.1598	122.0000
65.1793	105.0000
65.1987	124.0000
65.2182	127.0000
65.2376	126.0000
65.2571	112.0000
65.2765	111.0000
65.2960	107.0000
65.3155	101.0000
65.3349	118.0000
65.3544	124.0000
65.3738	145.0000
65.3933	123.0000
65.4127	114.0000
65.4322	121.0000
65.4517	119.0000
65.4711	137.0000
65.4906	127.0000
65.5100	129.0000
65.5295	121.0000
65.5489	120.0000
65.5684	127.0000
65.5879	117.0000
65.6073	118.0000
65.6268	117.0000
65.6462	116.0000
65.6657	124.0000
65.6851	135.0000
65.7046	138.0000
65.7241	119.0000
65.7435	117.0000
65.7630	129.0000
65.7824	126.0000
65.8019	134.0000
65.8213	107.0000
65.8408	129.0000
65.8603	121.0000
65.8797	141.0000
65.8992	107.0000
65.9186	128.0000
65.9381	101.0000
65.9575	107.0000
65.9770	107.0000
65.9965	117.0000
66.0159	98.0000
66.0354	122.0000
66.0548	115.0000
66.0743	115.0000
66.0937	138.0000
66.1132	105.0000
66.1326	119.0000
66.1521	120.0000
66.1716	118.0000
66.1910	112.0000
66.2105	118.0000
66.2299	124.0000
66.2494	113.0000
66.2688	108.0000
66.2883	120.0000
66.3078	124.0000
66.3272	131.0000
66.3467	126.0000
66.3661	120.0000
66.3856	117.0000
66.4050	109.0000
66.4245	144.0000
66.4440	120.0000
66.4634	106.0000
66.4829	129.0000
66.5023	132.0000
66.5218	115.0000
66.5412	126.0000
66.5607	118.0000
66.5802	151.0000
66.5996	117.0000
66.6191	136.0000
66.6385	130.0000
66.6580	130.0000
66.6774	111.0000
66.6969	134.0000
66.7164	112.0000
66.7358	114.0000
66.7553	126.0000
66.7747	122.0000
66.7942	116.0000
66.8136	133.0000
66.8331	119.0000
66.8526	107.0000
66.8720	121.0000
66.8915	130.0000
66.9109	120.0000
66.9304	133.0000
66.9498	109.0000
66.9693	117.0000
66.9888	122.0000
67.0082	127.0000
67.0277	128.0000
67.0471	120.0000
67.0666	130.0000
67.0860	133.0000
67.1055	117.0000
67.1250	122.0000
67.1444	119.0000
67.1639	133.0000
67.1833	113.0000
67.2028	124.0000
67.2222	120.0000
67.2417	116.0000
67.2612	138.0000
67.2806	125.0000
67.3001	113.0000
67.3195	114.0000
67.3390	120.0000
67.3584	106.0000
67.3779	117.0000
67.3974	125.0000
67.4168	120.0000
67.4363	119.0000
67.4557	127.0000
67.4752	146.0000
67.4946	113.0000
67.5141	117.0000
67.5336	110.0000
67.5530	97.0000
67.5725	110.0000
67.5919	119.0000
67.6114	136.0000
67.6308	123.0000
67.6503	127.0000
67.6698	125.0000
67.6892	100.0000
67.7087	125.0000
67.7281	121.0000
67.7476	139.0000
67.7670	117.0000
67.7865	126.0000
67.8060	125.0000
67.8254	116.0000
67.8449	110.0000
67.8643	123.0000
67.8838	128.0000
67.9032	124.0000
67.9227	107.0000
67.9422	118.0000
67.9616	138.0000
67.9811	110.0000
68.0005	125.0000
68.0200	124.0000
68.0394	132.0000
68.0589	118.0000
68.0784	126.0000
68.0978	115.0000
68.1173	111.0000
68.1367	123.0000
68.1562	137.0000
68.1756	117.0000
68.1951	117.0000
68.2146	132.0000
68.2340	136.0000
68.2535	137.0000
68.2729	117.0000
68.2924	129.0000
68.3118	132.0000
68.3313	132.0000
68.3508	137.0000
68.3702	116.0000
68.3897	122.0000
68.4091	122.0000
68.4286	142.0000
68.4480	117.0000
68.4675	125.0000
68.4870	136.0000
68.5064	139.0000
68.5259	114.0000
68.5453	136.0000
68.5648	112.0000
68.5842	130.0000
68.6037	126.0000
68.6232	117.0000
68.6426	116.0000
68.6621	136.0000
68.6815	131.0000
68.7010	136.0000
68.7204	123.0000
68.7399	144.0000
68.7594	134.0000
68.7788	137.0000
68.7983	122.0000
68.8177	132.0000
68.8372	135.0000
68.8566	122.0000
68.8761	109.0000
68.8955	104.0000
68.9150	116.0000
68.9345	122.0000
68.9539	126.0000
68.9734	137.0000
68.9928	124.0000
69.0123	120.0000
69.0317	106.0000
69.0512	121.0000
69.0707	130.0000
69.0901	138.0000
69.1096	112.0000
69.1290	131.0000
69.1485	127.0000
69.1679	124.0000
69.1874	129.0000
69.2069	119.0000
69.2263	124.0000
69.2458	141.0000
69.2652	136.0000
69.2847	129.0000
69.3041	127.0000
69.3236	110.0000
69.3431	113.0000
69.3625	118.0000
69.3820	133.0000
69.4014	111.0000
69.4209	111.0000
69.4403	133.0000
69.4598	123.0000
69.4793	122.0000
69.4987	123.0000
69.5182	118.0000
69.5376	120.0000
69.5571	135.0000
69.5765	118.0000
69.5960	110.0000
69.6155	127.0000
69.6349	143.0000
69.6544	119.0000
69.6738	116.0000
69.6933	133.0000
69.7127	127.0000
69.7322	103.0000
69.7517	140.0000
69.7711	130.0000
69.7906	120.0000
69.8100	116.0000
69.8295	109.0000
69.8489	111.0000
69.8684	117.0000
69.8879	117.0000
69.9073	129.0000
69.9268	119.0000
69.9462	119.0000
69.9657	109.0000
69.9851	141.0000
70.0046	112.0000
70.0241	141.0000
70.0435	126.0000
70.0630	123.0000
70.0824	108.0000
70.1019	126.0000
70.1213	131.0000
70.1408	101.0000
70.1603	130.0000
70.1797	118.0000
70.1992	153.0000
70.2186	120.0000
70.2381	116.0000
70.2575	119.0000
70.2770	135.0000
70.2965	138.0000
70.3159	128.0000
70.3354	130.0000
70.3548	112.0000
70.3743	132.0000
70.3937	127.0000
70.4132	96.0000
70.4327	121.0000
70.4521	138.0000
70.4716	133.0000
70.4910	125.0000
70.5105	130.0000
70.5299	114.0000
70.5494	123.0000
70.5689	114.0000
70.5883	127.0000
70.6078	118.0000
70.6272	131.0000
70.6467	116.0000
70.6661	110.0000
70.6856	133.0000
70.7051	124.0000
70.7245	131.0000
70.7440	115.0000
70.7634	112.0000
70.7829	128.0000
70.8023	114.0000
70.8218	114.0000
70.8413	126.0000
70.8607	119.0000
70.8802	129.0000
70.8996	119.0000
70.9191	136.0000
70.9385	107.0000
70.9580	128.0000
70.9775	104.0000
70.9969	134.0000
71.0164	118.0000
71.0358	122.0000
71.0553	130.0000
71.0747	137.0000
71.0942	133.0000
71.1137	137.0000
71.1331	111.0000
71.1526	110.0000
71.1720	108.0000
71.1915	136.0000
71.2109	116.0000
71.2304	126.0000
71.2499	100.0000
71.2693	142.0000
71.2888	131.0000
71.3082	106.0000
71.3277	122.0000
71.3471	111.0000
71.3666	123.0000
71.3861	135.0000
71.4055	128.0000
71.4250	129.0000
71.4444	134.0000
71.4639	123.0000
71.4833	117.0000
71.5028	106.0000
71.5223	111.0000
71.5417	119.0000
71.5612	144.0000
71.5806	129.0000
71.6001	115.0000
71.6195	127.0000
71.6390	124.0000
71.6584	135.0000
71.6779	116.0000
71.6974	135.0000
71.7168	136.0000
71.7363	126.0000
71.7557	122.0000
71.7752	126.0000
71.7946	121.0000
71.8141	135.0000
71.8336	142.0000
71.8530	113.0000
71.8725	127.0000
71.8919	118.0000
71.9114	119.0000
71.9308	130.0000
71.9503	132.0000
71.9698	139.0000
71.9892	123.0000
72.0087	104.0000
72.0281	114.0000
72.0476	136.0000
72.0670	131.0000
72.0865	128.0000
72.1060	114.0000
72.1254	129.0000
72.1449	138.0000
72.1643	137.0000
72.1838	121.0000
72.2032	117.0000
72.2227	122.0000
72.2422	120.0000
72.2616	126.0000
72.2811	126.0000
72.3005	126.0000
72.3200	121.0000
72.3394	152.0000
72.3589	133.0000
72.3784	124.0000
72.3978	133.0000
72.4173	96.0000
72.4367	117.0000
72.4562	136.0000
72.4756	128.0000
72.4951	134.0000
72.5146	118.0000
72.5340	149.0000
72.5535	135.0000
72.5729	132.0000
72.5924	123.0000
72.6118	113.0000
72.6313	109.0000
72.6508	130.0000
72.6702	118.0000
72.6897	135.0000
72.7091	143.0000
72.7286	124.0000
72.7480	130.0000
72.7675	134.0000
72.7870	110.0000
72.8064	128.0000
72.8259	118.0000
72.8453	127.0000
72.8648	140.0000
72.8842	117.0000
72.9037	122.0000
72.9232	117.0000
72.9426	122.0000
72.9621	140.0000
72.9815	124.0000
73.0010	136.0000
73.0204	123.0000
73.0399	132.0000
73.0594	158.0000
73.0788	143.0000
73.0983	139.0000
73.1177	128.0000
73.1372	121.0000
73.1566	139.0000
73.1761	120.0000
73.1956	133.0000
73.2150	110.0000
73.2345	109.0000
73.2539	152.0000
73.2734	135.0000
73.2928	139.0000
73.3123	136.0000
73.3318	119.0000
73.3512	135.0000
73.3707	143.0000
73.3901	126.0000
73.4096	137.0000
73.4290	126.0000
73.4485	135.0000
73.4680	121.0000
73.4874	121.0000
73.5069	120.0000
73.5263	117.0000
73.5458	113.0000
73.5652	107.0000
73.5847	144.0000
73.6042	140.0000
73.6236	140.0000
73.6431	132.0000
73.6625	113.0000
73.6820	113.0000
73.7014	142.0000
73.7209	126.0000
73.7404	135.0000
73.7598	112.0000
73.7793	131.0000
73.7987	128.0000
73.8182	136.0000
73.8376	123.0000
73.8571	129.0000
73.8766	134.0000
73.8960	127.0000
73.9155	131.0000
73.9349	167.0000
73.9544	130.0000
73.9738	128.0000
73.9933	126.0000
74.0128	124.0000
74.0322	148.0000
74.0517	133.0000
74.0711	148.0000
74.0906	135.0000
74.1100	132.0000
74.1295	122.0000
74.1490	154.0000
74.1684	97.0000
74.1879	114.0000
74.2073	116.0000
74.2268	132.0000
74.2462	136.0000
74.2657	131.0000
74.2852	121.0000
74.3046	112.0000
74.3241	139.0000
74.3435	148.0000
74.3630	144.0000
74.3824	123.0000
74.4019	139.0000
74.4213	133.0000
74.4408	150.0000
74.4603	130.0000
74.4797	141.0000
74.4992	136.0000
74.5186	139.0000
74.5381	156.0000
74.5575	142.0000
74.5770	141.0000
74.5965	131.0000
74.6159	148.0000
74.6354	166.0000
74.6548	149.0000
74.6743	148.0000
74.6937	141.0000
74.7132	143.0000
74.7327	159.0000
74.7521	139.0000
74.7716	161.0000
74.7910	147.0000
74.8105	145.0000
74.8299	154.0000
74.8494	167.0000
74.8689	166.0000
74.8883	149.0000
74.9078	173.0000
74.9272	180.0000
74.9467	152.0000
74.9661	173.0000
74.9856	170.0000
75.0051	165.0000
75.0245	167.0000
75.0440	168.0000
75.0634	179.0000
75.0829	180.0000
75.1023	162.0000
75.1218	177.0000
75.1413	147.0000
75.1607	145.0000
75.1802	166.0000
75.1996	150.0000
75.2191	168.0000
75.2385	151.0000
75.2580	157.0000
75.2775	156.0000
75.2969	172.0000
75.3164	155.0000
75.3358	129.0000
75.3553	125.0000
75.3747	147.0000
75.3942	161.0000
75.4137	155.0000
75.4331	173.0000
75.4526	121.0000
75.4720	155.0000
75.4915	147.0000
75.5109	161.0000
75.5304	158.0000
75.5499	139.0000
75.5693	134.0000
75.5888	155.0000
75.6082	136.0000
75.6277	133.0000
75.6471	128.0000
75.6666	137.0000
75.6861	121.0000
75.7055	149.0000
75.7250	130.0000
75.7444	128.0000
75.7639	132.0000
75.7833	134.0000
75.8028	146.0000
75.8223	143.0000
75.8417	141.0000
75.8612	127.0000
75.8806	130.0000
75.9001	126.0000
75.9195	128.0000
75.9390	130.0000
75.9585	139.0000
75.9779	139.0000
75.9974	133.0000
76.0168	133.0000
76.0363	132.0000
76.0557	135.0000
76.0752	142.0000
76.0947	132.0000
76.1141	118.0000
76.1336	150.0000
76.1530	134.0000
76.1725	138.0000
76.1919	140.0000
76.2114	130.0000
76.2309	138.0000
76.2503	139.0000
76.2698	139.0000
76.2892	134.0000
76.3087	130.0000
76.3281	134.0000
76.3476	143.0000
76.3671	120.0000
76.3865	140.0000
76.4060	150.0000
76.4254	130.0000
76.4449	138.0000
76.4643	138.0000
76.4838	128.0000
76.5033	146.0000
76.5227	121.0000
76.5422	132.0000
76.5616	138.0000
76.5811	133.0000
76.6005	128.0000
76.6200	137.0000
76.6395	143.0000
76.6589	126.0000
76.6784	117.0000
76.6978	121.0000
76.7173	129.0000
76.7367	119.0000
76.7562	138.0000
76.7757	135.0000
76.7951	136.0000
76.8146	141.0000
76.8340	145.0000
76.8535	113.0000
76.8729	144.0000
76.8924	120.0000
76.9119	152.0000
76.9313	142.0000
76.9508	120.0000
76.9702	132.0000
76.9897	147.0000
77.0091	126.0000
77.0286	130.0000
77.0481	152.0000
77.0675	125.0000
77.0870	131.0000
77.1064	106.0000
77.1259	122.0000
77.1453	110.0000
77.1648	139.0000
77.1843	118.0000
77.2037	134.0000
77.2232	130.0000
77.2426	121.0000
77.2621	133.0000
77.2815	135.0000
77.3010	136.0000
77.3204	132.0000
77.3399	122.0000
77.3594	140.0000
77.3788	129.0000
77.3983	141.0000
77.4177	142.0000
77.4372	137.0000
77.4566	125.0000
77.4761	130.0000
77.4956	130.0000
77.5150	113.0000
77.5345	121.0000
77.5539	137.0000
77.5734	123.0000
77.5928	132.0000
77.6123	144.0000
77.6318	141.0000
77.6512	125.0000
77.6707	135.0000
77.6901	133.0000
77.7096	119.0000
77.7290	116.0000
77.7485	130.0000
77.7680	124.0000
77.7874	138.0000
77.8069	123.0000
77.8263	124.0000
77.8458	140.0000
77.8652	113.0000
77.8847	127.0000
77.9042	125.0000
77.9236	128.0000
77.9431	119.0000
77.9625	114.0000
77.9820	129.0000
78.0014	145.0000
78.0209	116.0000
78.0404	149.0000
78.0598	131.0000
78.0793	145.0000
78.0987	155.0000
78.1182	130.0000
78.1376	127.0000
78.1571	123.0000
78.1766	131.0000
78.1960	113.0000
78.2155	126.0000
78.2349	125.0000
78.2544	148.0000
78.2738	127.0000
78.2933	142.0000
78.3128	111.0000
78.3322	135.0000
78.3517	123.0000
78.3711	141.0000
78.3906	130.0000
78.4100	125.0000
78.4295	131.0000
78.4490	143.0000
78.4684	154.0000
78.4879	150.0000
78.5073	128.0000
78.5268	130.0000
78.5462	130.0000
78.5657	134.0000
78.5852	128.0000
78.6046	132.0000
78.6241	136.0000
78.6435	138.0000
78.6630	141.0000
78.6824	126.0000
78.7019	122.0000
78.7214	121.0000
78.7408	132.0000
78.7603	137.0000
78.7797	126.0000
78.7992	133.0000
78.8186	147.0000
78.8381	118.0000
78.8576	144.0000
78.8770	132.0000
78.8965	132.0000
78.9159	123.0000
78.9354	133.0000
78.9548	137.0000
78.9743	131.0000
78.9938	136.0000
79.0132	126.0000
79.0327	115.0000
79.0521	128.0000
79.0716	132.0000
79.0910	119.0000
79.1105	121.0000
79.1300	121.0000
79.1494	146.0000
79.1689	115.0000
79.1883	126.0000
79.2078	149.0000
79.2272	140.0000
79.2467	139.0000
79.2662	128.0000
79.2856	123.0000
79.3051	133.0000
79.3245	151.0000
79.3440	140.0000
79.3634	147.0000
79.3829	120.0000
79.4024	116.0000
79.4218	151.0000
79.4413	115.0000
79.4607	147.0000
79.4802	128.0000
79.4996	120.0000
79.5191	122.0000
79.5386	123.0000
79.5580	148.0000
79.5775	118.0000
79.5969	124.0000
79.6164	125.0000
79.6358	126.0000
79.6553	135.0000
79.6748	153.0000
79.6942	115.0000
79.7137	135.0000
79.7331	131.0000
79.7526	128.0000
79.7720	126.0000
79.7915	154.0000
79.8110	136.0000
79.8304	118.0000
79.8499	126.0000
79.8693	124.0000
79.8888	133.0000
79.9082	124.0000
79.9277	129.0000
79.9472	137.0000
79.9666	145.0000
79.9861	142.0000
80.0055	121.0000
80.0250	134.0000
80.0444	107.0000
80.0639	143.0000
80.0833	144.0000
80.1028	148.0000
80.1223	128.0000
80.1417	128.0000
80.1612	127.0000
80.1806	116.0000
80.2001	132.0000
80.2195	118.0000
80.2390	139.0000
80.2585	131.0000
80.2779	116.0000
80.2974	131.0000
80.3168	144.0000
80.3363	123.0000
80.3557	116.0000
80.3752	128.0000
80.3947	148.0000
80.4141	129.0000
80.4336	147.0000
80.4530	134.0000
80.4725	122.0000
80.4919	159.0000
80.5114	115.0000
80.5309	114.0000
80.5503	133.0000
80.5698	137.0000
80.5892	139.0000
80.6087	130.0000
80.6281	129.0000
80.6476	143.0000
80.6671	123.0000
80.6865	146.0000
80.7060	163.0000
80.7254	125.0000
80.7449	138.0000
80.7643	133.0000
80.7838	131.0000
80.8033	130.0000
80.8227	164.0000
80.8422	158.0000
80.8616	149.0000
80.8811	142.0000
80.9005	131.0000
80.9200	145.0000
80.9395	150.0000
80.9589	154.0000
80.9784	112.0000
80.9978	146.0000
81.0173	136.0000
81.0367	129.0000
81.0562	116.0000
81.0757	118.0000
81.0951	133.0000
81.1146	133.0000
81.1340	115.0000
81.1535	136.0000
81.1729	138.0000
81.1924	130.0000
81.2119	121.0000
81.2313	133.0000
81.2508	146.0000
81.2702	138.0000
81.2897	117.0000
81.3091	118.0000
81.3286	133.0000
81.3481	126.0000
81.3675	121.0000
81.3870	122.0000
81.4064	133.0000
81.4259	131.0000
81.4453	137.0000
81.4648	133.0000
81.4843	141.0000
81.5037	135.0000
81.5232	125.0000
81.5426	119.0000
81.5621	135.0000
81.5815	120.0000
81.6010	132.0000
81.6205	124.0000
81.6399	153.0000
81.6594	145.0000
81.6788	128.0000
81.6983	146.0000
81.7177	133.0000
81.7372	154.0000
81.7567	137.0000
81.7761	146.0000
81.7956	133.0000
81.8150	135.0000
81.8345	158.0000
81.8539	121.0000
81.8734	147.0000
81.8929	138.0000
81.9123	134.0000
81.9318	147.0000
81.9512	125.0000
81.9707	140.0000
81.9901	136.0000
82.0096	133.0000
82.0291	157.0000
82.0485	128.0000
82.0680	140.0000
82.0874	121.0000
82.1069	134.0000
82.1263	132.0000
82.1458	132.0000
82.1653	132.0000
82.1847	122.0000
82.2042	134.0000
82.2236	131.0000
82.2431	122.0000
82.2625	147.0000
82.2820	130.0000
82.3015	130.0000
82.3209	132.0000
82.3404	130.0000
82.3598	137.0000
82.3793	132.0000
82.3987	123.0000
82.4182	143.0000
82.4377	127.0000
82.4571	114.0000
82.4766	124.0000
82.4960	133.0000
82.5155	124.0000
82.5349	121.0000
82.5544	145.0000
82.5739	140.0000
82.5933	143.0000
82.6128	146.0000
82.6322	134.0000
82.6517	138.0000
82.6711	151.0000
82.6906	119.0000
82.7101	133.0000
82.7295	130.0000
82.7490	139.0000
82.7684	147.0000
82.7879	121.0000
82.8073	114.0000
82.8268	152.0000
82.8462	124.0000
82.8657	144.0000
82.8852	140.0000
82.9046	140.0000
82.9241	122.0000
82.9435	134.0000
82.9630	146.0000
82.9824	123.0000
83.0019	119.0000
83.0214	128.0000
83.0408	156.0000
83.0603	136.0000
83.0797	138.0000
83.0992	113.0000
83.1186	148.0000
83.1381	142.0000
83.1576	124.0000
83.1770	132.0000
83.1965	147.0000
83.2159	134.0000
83.2354	127.0000
83.2548	123.0000
83.2743	141.0000
83.2938	128.0000
83.3132	149.0000
83.3327	116.0000
83.3521	117.0000
83.3716	141.0000
83.3910	123.0000
83.4105	109.0000
83.4300	142.0000
83.4494	136.0000
83.4689	110.0000
83.4883	132.0000
83.5078	119.0000
83.5272	144.0000
83.5467	151.0000
83.5662	166.0000
83.5856	130.0000
83.6051	136.0000
83.6245	130.0000
83.6440	128.0000
83.6634	148.0000
83.6829	143.0000
83.7024	125.0000
83.7218	147.0000
83.7413	119.0000
83.7607	122.0000
83.7802	134.0000
83.7996	132.0000
83.8191	132.0000
83.8386	121.0000
83.8580	130.0000
83.8775	149.0000
83.8969	151.0000
83.9164	134.0000
83.9358	120.0000
83.9553	135.0000
83.9748	127.0000
83.9942	147.0000
84.0137	131.0000
84.0331	142.0000
84.0526	139.0000
84.0720	119.0000
84.0915	155.0000
84.1110	148.0000
84.1304	150.0000
84.1499	124.0000
84.1693	133.0000
84.1888	143.0000
84.2082	136.0000
84.2277	143.0000
84.2472	118.0000
84.2666	142.0000
84.2861	129.0000
84.3055	148.0000
84.3250	137.0000
84.3444	140.0000
84.3639	144.0000
84.3834	150.0000
84.4028	118.0000
84.4223	142.0000
84.4417	135.0000
84.4612	139.0000
84.4806	129.0000
84.5001	137.0000
84.5196	131.0000
84.5390	160.0000
84.5585	125.0000
84.5779	137.0000
84.5974	115.0000
84.6168	134.0000
84.6363	126.0000
84.6558	147.0000
84.6752	115.0000
84.6947	127.0000
84.7141	105.0000
84.7336	118.0000
84.7530	140.0000
84.7725	130.0000
84.7920	150.0000
84.8114	145.0000
84.8309	126.0000
84.8503	122.0000
84.8698	136.0000
84.8892	140.0000
84.9087	115.0000
84.9282	147.0000
84.9476	126.0000
84.9671	134.0000
84.9865	148.0000
85.0060	124.0000
85.0254	132.0000
85.0449	157.0000
85.0644	139.0000
85.0838	124.0000
85.1033	131.0000
85.1227	133.0000
85.1422	146.0000
85.1616	133.0000
85.1811	125.0000
85.2006	142.0000
85.2200	133.0000
85.2395	122.0000
85.2589	132.0000
85.2784	150.0000
85.2978	130.0000
85.3173	145.0000
85.3368	123.0000
85.3562	144.0000
85.3757	139.0000
85.3951	138.0000
85.4146	144.0000
85.4340	132.0000
85.4535	130.0000
85.4730	152.0000
85.4924	124.0000
85.5119	137.0000
85.5313	109.0000
85.5508	112.0000
85.5702	143.0000
85.5897	128.0000
85.6091	148.0000
85.6286	122.0000
85.6481	143.0000
85.6675	141.0000
85.6870	160.0000
85.7064	133.0000
85.7259	126.0000
85.7453	149.0000
85.7648	161.0000
85.7843	130.0000
85.8037	149.0000
85.8232	129.0000
85.8426	130.0000
85.8621	127.0000
85.8815	153.0000
85.9010	128.0000
85.9205	152.0000
85.9399	154.0000
85.9594	125.0000
85.9788	124.0000
85.9983	149.0000
86.0177	168.0000
86.0372	145.0000
86.0567	140.0000
86.0761	141.0000
86.0956	128.0000
86.1150	140.0000
86.1345	111.0000
86.1539	145.0000
86.1734	128.0000
86.1929	131.0000
86.2123	127.0000
86.2318	134.0000
86.2512	131.0000
86.2707	117.0000
86.2901	131.0000
86.3096	129.0000
86.3291	119.0000
86.3485	126.0000
86.3680	144.0000
86.3874	150.0000
86.4069	129.0000
86.4263	135.0000
86.4458	136.0000
86.4653	143.0000
86.4847	151.0000
86.5042	132.0000
86.5236	157.0000
86.5431	140.0000
86.5625	161.0000
86.5820	152.0000
86.6015	123.0000
86.6209	149.0000
86.6404	144.0000
86.6598	125.0000
86.6793	129.0000
86.6987	130.0000
86.7182	139.0000
86.7377	143.0000
86.7571	135.0000
86.7766	140.0000
86.7960	122.0000
86.8155	146.0000
86.8349	134.0000
86.8544	131.0000
86.8739	125.0000
86.8933	137.0000
86.9128	138.0000
86.9322	130.0000
86.9517	138.0000
86.9711	146.0000
86.9906	139.0000
87.0101	106.0000
87.0295	131.0000
87.0490	131.0000
87.0684	135.0000
87.0879	145.0000
87.1073	142.0000
87.1268	141.0000
87.1463	137.0000
87.1657	137.0000
87.1852	133.0000
87.2046	133.0000
87.2241	123.0000
87.2435	131.0000
87.2630	137.0000
87.2825	158.0000
87.3019	144.0000
87.3214	144.0000
87.3408	137.0000
87.3603	134.0000
87.3797	126.0000
87.3992	147.0000
87.4187	138.0000
87.4381	150.0000
87.4576	122.0000
87.4770	129.0000
87.4965	137.0000
87.5159	131.0000
87.5354	142.0000
87.5549	120.0000
87.5743	142.0000
87.5938	124.0000
87.6132	138.0000
87.6327	134.0000
87.6521	121.0000
87.6716	128.0000
87.6911	129.0000
87.7105	131.0000
87.7300	122.0000
87.7494	143.0000
87.7689	125.0000
87.7883	142.0000
87.8078	132.0000
87.8273	161.0000
87.8467	140.0000
87.8662	137.0000
87.8856	149.0000
87.9051	144.0000
87.9245	128.0000
87.9440	148.0000
87.9635	125.0000
87.9829	116.0000
88.0024	161.0000
88.0218	111.0000
88.0413	128.0000
88.0607	134.0000
88.0802	130.0000
88.0997	125.0000
88.1191	136.0000
88.1386	167.0000
88.1580	138.0000
88.1775	146.0000
88.1969	146.0000
88.2164	165.0000
88.2359	151.0000
88.2553	145.0000
88.2748	123.0000
88.2942	132.0000
88.3137	141.0000
88.3331	138.0000
88.3526	148.0000
88.3720	143.0000
88.3915	145.0000
88.4110	131.0000
88.4304	139.0000
88.4499	144.0000
88.4693	135.0000
88.4888	135.0000
88.5082	125.0000
88.5277	149.0000
88.5472	141.0000
88.5666	147.0000
88.5861	132.0000
88.6055	147.0000
88.6250	144.0000
88.6444	160.0000
88.6639	151.0000
88.6834	138.0000
88.7028	133.0000
88.7223	141.0000
88.7417	147.0000
88.7612	158.0000
88.7806	159.0000
88.8001	146.0000
88.8196	144.0000
88.8390	145.0000
88.8585	146.0000
88.8779	126.0000
88.8974	123.0000
88.9168	126.0000
88.9363	139.0000
88.9558	134.0000
88.9752	149.0000
88.9947	139.0000
89.0141	143.0000
89.0336	145.0000
89.0530	143.0000
89.0725	124.0000
89.0920	154.0000
89.1114	137.0000
89.1309	130.0000
89.1503	143.0000
89.1698	150.0000
89.1892	154.0000
89.2087	133.0000
89.2282	155.0000
89.2476	132.0000
89.2671	160.0000
89.2865	127.0000
89.3060	154.0000
89.3254	129.0000
89.3449	124.0000
89.3644	156.0000
89.3838	154.0000
89.4033	147.0000
89.4227	136.0000
89.4422	167.0000
89.4616	133.0000
89.4811	163.0000
89.5006	155.0000
89.5200	148.0000
89.5395	154.0000
89.5589	147.0000
89.5784	138.0000
89.5978	149.0000
89.6173	136.0000
89.6368	146.0000
89.6562	165.0000
89.6757	154.0000
89.6951	134.0000
89.7146	148.0000
89.7340	156.0000
89.7535	154.0000
89.7730	137.0000
89.7924	148.0000
89.8119	139.0000
89.8313	140.0000
89.8508	160.0000
89.8702	151.0000
89.8897	142.0000
89.9092	137.0000
89.9286	159.0000
89.9481	164.0000
89.9675	164.0000
89.9870	159.0000
90.0064	153.0000
90.0259	162.0000
90.0454	144.0000
90.0648	164.0000
90.0843	153.0000
90.1037	153.0000
90.1232	172.0000
90.1426	171.0000
90.1621	147.0000
90.1816	196.0000
90.2010	156.0000
90.2205	141.0000
90.2399	148.0000
90.2594	151.0000
90.2788	167.0000
90.2983	175.0000
90.3178	152.0000
90.3372	158.0000
90.3567	185.0000
90.3761	165.0000
90.3956	165.0000
90.4150	184.0000
90.4345	160.0000
90.4540	191.0000
90.4734	191.0000
90.4929	163.0000
90.5123	159.0000
90.5318	179.0000
90.5512	194.0000
90.5707	211.0000
90.5902	216.0000
90.6096	230.0000
90.6291	209.0000
90.6485	208.0000
90.6680	217.0000
90.6874	202.0000
90.7069	244.0000
90.7264	251.0000
90.7458	226.0000
90.7653	236.0000
90.7847	247.0000
90.8042	266.0000
90.8236	230.0000
90.8431	272.0000
90.8626	250.0000
90.8820	254.0000
90.9015	261.0000
90.9209	254.0000
90.9404	279.0000
90.9598	283.0000
90.9793	301.0000
90.9988	295.0000
91.0182	302.0000
91.0377	277.0000
91.0571	261.0000
91.0766	265.0000
91.0960	267.0000
91.1155	266.0000
91.1350	257.0000
91.1544	276.0000
91.1739	258.0000
91.1933	282.0000
91.2128	234.0000
91.2322	248.0000
91.2517	244.0000
91.2711	237.0000
91.2906	235.0000
91.3101	234.0000
91.3295	215.0000
91.3490	213.0000
91.3684	217.0000
91.3879	210.0000
91.4073	221.0000
91.4268	189.0000
91.4463	177.0000
91.4657	204.0000
91.4852	190.0000
91.5046	156.0000
91.5241	184.0000
91.5435	163.0000
91.5630	173.0000
91.5825	180.0000
91.6019	178.0000
91.6214	171.0000
91.6408	175.0000
91.6603	160.0000
91.6797	169.0000
91.6992	176.0000
91.7187	173.0000
91.7381	169.0000
91.7576	171.0000
91.7770	191.0000
91.7965	169.0000
91.8159	159.0000
91.8354	166.0000
91.8549	158.0000
91.8743	162.0000
91.8938	174.0000
91.9132	166.0000
91.9327	177.0000
91.9521	170.0000
91.9716	177.0000
91.9911	180.0000
92.0105	183.0000
92.0300	156.0000
92.0494	158.0000
92.0689	148.0000
92.0883	154.0000
92.1078	171.0000
92.1273	145.0000
92.1467	167.0000
92.1662	158.0000
92.1856	165.0000
92.2051	168.0000
92.2245	176.0000
92.2440	153.0000
92.2635	151.0000
92.2829	135.0000
92.3024	169.0000
92.3218	153.0000
92.3413	153.0000
92.3607	161.0000
92.3802	186.0000
92.3997	168.0000
92.4191	171.0000
92.4386	145.0000
92.4580	156.0000
92.4775	164.0000
92.4969	197.0000
92.5164	189.0000
92.5359	161.0000
92.5553	149.0000
92.5748	176.0000
92.5942	179.0000
92.6137	174.0000
92.6331	173.0000
92.6526	160.0000
92.6721	160.0000
92.6915	147.0000
92.7110	142.0000
92.7304	152.0000
92.7499	161.0000
92.7693	159.0000
92.7888	144.0000
92.8083	138.0000
92.8277	157.0000
92.8472	156.0000
92.8666	156.0000
92.8861	146.0000
92.9055	147.0000
92.9250	167.0000
92.9445	175.0000
92.9639	158.0000
92.9834	150.0000
93.0028	158.0000
93.0223	134.0000
93.0417	154.0000
93.0612	172.0000
93.0807	158.0000
93.1001	169.0000
93.1196	163.0000
93.1390	163.0000
93.1585	135.0000
93.1779	173.0000
93.1974	164.0000
93.2169	164.0000
93.2363	158.0000
93.2558	157.0000
93.2752	168.0000
93.2947	140.0000
93.3141	158.0000
93.3336	156.0000
93.3531	141.0000
93.3725	141.0000
93.3920	158.0000
93.4114	166.0000
93.4309	186.0000
93.4503	151.0000
93.4698	165.0000
93.4893	147.0000
93.5087	156.0000
93.5282	158.0000
93.5476	165.0000
93.5671	142.0000
93.5865	146.0000
93.6060	166.0000
93.6255	169.0000
93.6449	143.0000
93.6644	185.0000
93.6838	138.0000
93.7033	160.0000
93.7227	166.0000
93.7422	167.0000
93.7617	151.0000
93.7811	165.0000
93.8006	147.0000
93.8200	173.0000
93.8395	164.0000
93.8589	164.0000
93.8784	152.0000
93.8979	167.0000
93.9173	158.0000
93.9368	173.0000
93.9562	169.0000
93.9757	174.0000
93.9951	181.0000
94.0146	174.0000
94.0340	156.0000
94.0535	150.0000
94.0730	174.0000
94.0924	181.0000
94.1119	184.0000
94.1313	161.0000
94.1508	150.0000
94.1702	166.0000
94.1897	140.0000
94.2092	159.0000
94.2286	174.0000
94.2481	170.0000
94.2675	176.0000
94.2870	184.0000
94.3064	164.0000
94.3259	181.0000
94.3454	151.0000
94.3648	178.0000
94.3843	131.0000
94.4037	142.0000
94.4232	163.0000
94.4426	169.0000
94.4621	163.0000
94.4816	158.0000
94.5010	184.0000
94.5205	146.0000
94.5399	170.0000
94.5594	166.0000
94.5788	182.0000
94.5983	161.0000
94.6178	195.0000
94.6372	154.0000
94.6567	178.0000
94.6761	146.0000
94.6956	157.0000
94.7150	134.0000
94.7345	158.0000
94.7540	153.0000
94.7734	157.0000
94.7929	143.0000
94.8123	162.0000
94.8318	167.0000
94.8512	151.0000
94.8707	155.0000
94.8902	182.0000
94.9096	188.0000
94.9291	157.0000
94.9485	175.0000
94.9680	161.0000
94.9874	166.0000
95.0069	163.0000
95.0264	155.0000
95.0458	161.0000
95.0653	152.0000
95.0847	165.0000
95.1042	159.0000
95.1236	173.0000
95.1431	161.0000
95.1626	146.0000
95.1820	153.0000
95.2015	148.0000
95.2209	166.0000
95.2404	170.0000
95.2598	171.0000
95.2793	181.0000
95.2988	160.0000
95.3182	166.0000
95.3377	163.0000
95.3571	162.0000
95.3766	180.0000
95.3960	162.0000
95.4155	155.0000
95.4350	184.0000
95.4544	161.0000
95.4739	174.0000
95.4933	151.0000
95.5128	147.0000
95.5322	164.0000
95.5517	177.0000
95.5712	186.0000
95.5906	141.0000
95.6101	149.0000
95.6295	175.0000
95.6490	158.0000
95.6684	195.0000
95.6879	165.0000
95.7074	165.0000
95.7268	152.0000
95.7463	171.0000
95.7657	181.0000
95.7852	182.0000
95.8046	146.0000
95.8241	173.0000
95.8436	168.0000
95.8630	162.0000
95.8825	183.0000
95.9019	173.0000
95.9214	170.0000
95.9408	172.0000
95.9603	183.0000
95.9798	158.0000
95.9992	152.0000
96.0187	156.0000
96.0381	175.0000
96.0576	186.0000
96.0770	171.0000
96.0965	168.0000
96.1160	187.0000
96.1354	158.0000
96.1549	185.0000
96.1743	135.0000
96.1938	195.0000
96.2132	161.0000
96.2327	176.0000
96.2522	196.0000
96.2716	203.0000
96.2911	171.0000
96.3105	170.0000
96.3300	177.0000
96.3494	150.0000
96.3689	202.0000
96.3884	188.0000
96.4078	196.0000
96.4273	177.0000
96.4467	188.0000
96.4662	209.0000
96.4856	183.0000
96.5051	176.0000
96.5246	184.0000
96.5440	180.0000
96.5635	189.0000
96.5829	183.0000
96.6024	161.0000
96.6218	181.0000
96.6413	184.0000
96.6608	160.0000
96.6802	189.0000
96.6997	169.0000
96.7191	200.0000
96.7386	181.0000
96.7580	182.0000
96.7775	191.0000
96.7969	173.0000
96.8164	169.0000
96.8359	192.0000
96.8553	159.0000
96.8748	185.0000
96.8942	168.0000
96.9137	148.0000
96.9331	144.0000
96.9526	141.0000
96.9721	165.0000
96.9915	156.0000
97.0110	148.0000
97.0304	155.0000
97.0499	157.0000
97.0693	136.0000
97.0888	163.0000
97.1083	162.0000
97.1277	179.0000
97.1472	178.0000
97.1666	162.0000
97.1861	153.0000
97.2055	160.0000
97.2250	156.0000
97.2445	142.0000
97.2639	163.0000
97.2834	160.0000
97.3028	166.0000
97.3223	162.0000
97.3417	148.0000
97.3612	152.0000
97.3807	180.0000
97.4001	165.0000
97.4196	178.0000
97.4390	156.0000
97.4585	147.0000
97.4779	156.0000
97.4974	169.0000
97.5169	154.0000
97.5363	155.0000
97.5558	153.0000
97.5752	149.0000
97.5947	128.0000
97.6141	155.0000
97.6336	150.0000
97.6531	160.0000
97.6725	166.0000
97.6920	161.0000
97.7114	138.0000
97.7309	168.0000
97.7503	176.0000
97.7698	170.0000
97.7893	143.0000
97.8087	150.0000
97.8282	157.0000
97.8476	169.0000
97.8671	151.0000
97.8865	153.0000
97.9060	140.0000
97.9255	184.0000
97.9449	151.0000
97.9644	163.0000
97.9838	168.0000
98.0033	167.0000
98.0227	163.0000
98.0422	181.0000
98.0617	147.0000
98.0811	148.0000
98.1006	165.0000
98.1200	157.0000
98.1395	174.0000
98.1589	171.0000
98.1784	152.0000
98.1979	144.0000
98.2173	168.0000
98.2368	148.0000
98.2562	169.0000
98.2757	163.0000
98.2951	172.0000
98.3146	164.0000
98.3341	147.0000
98.3535	183.0000
98.3730	162.0000
98.3924	154.0000
98.4119	163.0000
98.4313	136.0000
98.4508	170.0000
98.4703	162.0000
98.4897	166.0000
98.5092	156.0000
98.5286	168.0000
98.5481	186.0000
98.5675	139.0000
98.5870	157.0000
98.6065	147.0000
98.6259	149.0000
98.6454	155.0000
98.6648	166.0000
98.6843	148.0000
98.7037	140.0000
98.7232	146.0000
98.7427	143.0000
98.7621	154.0000
98.7816	148.0000
98.8010	156.0000
98.8205	164.0000
98.8399	177.0000
98.8594	157.0000
98.8789	152.0000
98.8983	172.0000
98.9178	149.0000
98.9372	181.0000
98.9567	141.0000
98.9761	141.0000
98.9956	150.0000
99.0151	153.0000
99.0345	174.0000
99.0540	147.0000
99.0734	155.0000
99.0929	178.0000
99.1123	157.0000
99.1318	170.0000
99.1513	141.0000
99.1707	170.0000
99.1902	154.0000
99.2096	161.0000
99.2291	151.0000
99.2485	167.0000
99.2680	182.0000
99.2875	168.0000
99.3069	159.0000
99.3264	144.0000
99.3458	181.0000
99.3653	147.0000
99.3847	152.0000
99.4042	155.0000
99.4237	174.0000
99.4431	149.0000
99.4626	161.0000
99.4820	148.0000
99.5015	156.0000
99.5209	158.0000
99.5404	150.0000
99.5598	150.0000
99.5793	155.0000
99.5988	161.0000
99.6182	183.0000
99.6377	154.0000
99.6571	195.0000
99.6766	167.0000
99.6960	134.0000
99.7155	174.0000
99.7350	157.0000
99.7544	170.0000
99.7739	181.0000
99.7933	161.0000
99.8128	131.0000
99.8322	169.0000
99.8517	175.0000
99.8712	130.0000
99.8906	140.0000
99.9101	147.0000
99.9295	158.0000
99.9490	157.0000
99.9684	165.0000
99.9879	144.0000
100.0074	155.0000
