30.0009	193.0000
30.0204	192.0000
30.0398	201.0000
30.0593	211.0000
30.0787	213.0000
30.0982	205.0000
30.1177	195.0000
30.1371	196.0000
30.1566	192.0000
30.1760	164.0000
30.1955	175.0000
30.2149	220.0000
30.2344	207.0000
30.2539	203.0000
30.2733	210.0000
30.2928	216.0000
30.3122	199.0000
30.3317	207.0000
30.3511	183.0000
30.3706	208.0000
30.3901	195.0000
30.4095	209.0000
30.4290	177.0000
30.4484	190.0000
30.4679	210.0000
30.4873	184.0000
30.5068	205.0000
30.5263	202.0000
30.5457	218.0000
30.5652	208.0000
30.5846	174.0000
30.6041	212.0000
30.6235	223.0000
30.6430	173.0000
30.6625	180.0000
30.6819	207.0000
30.7014	198.0000
30.7208	195.0000
30.7403	181.0000
30.7597	173.0000
30.7792	200.0000
30.7987	229.0000
30.8181	208.0000
30.8376	195.0000
30.8570	171.0000
30.8765	216.0000
30.8959	188.0000
30.9154	197.0000
30.9349	196.0000
30.9543	226.0000
30.9738	198.0000
30.9932	218.0000
31.0127	193.0000
31.0321	210.0000
31.0516	222.0000
31.0711	216.0000
31.0905	198.0000
31.1100	193.0000
31.1294	212.0000
31.1489	197.0000
31.1683	217.0000
31.1878	186.0000
31.2073	203.0000
31.2267	207.0000
31.2462	191.0000
31.2656	218.0000
31.2851	201.0000
31.3045	188.0000
31.3240	205.0000
31.3435	201.0000
31.3629	211.0000
31.3824	203.0000
31.4018	185.0000
31.4213	176.0000
31.4407	182.0000
31.4602	193.0000
31.4797	213.0000
31.4991	218.0000
31.5186	201.0000
31.5380	198.0000
31.5575	218.0000
31.5769	185.0000
31.5964	217.0000
31.6159	188.0000
31.6353	184.0000
31.6548	189.0000
31.6742	220.0000
31.6937	222.0000
31.7131	201.0000
31.7326	186.0000
31.7521	188.0000
31.7715	193.0000
31.7910	209.0000
31.8104	195.0000
31.8299	212.0000
31.8493	182.0000
31.8688	170.0000
31.8883	206.0000
31.9077	211.0000
31.9272	201.0000
31.9466	216.0000
31.9661	194.0000
31.9855	170.0000
32.0050	201.0000
32.0245	191.0000
32.0439	210.0000
32.0634	203.0000
32.0828	220.0000
32.1023	208.0000
32.1217	214.0000
32.1412	215.0000
32.1607	206.0000
32.1801	196.0000
32.1996	219.0000
32.2190	205.0000
32.2385	192.0000
32.2579	185.0000
32.2774	209.0000
32.2969	200.0000
32.3163	210.0000
32.3358	227.0000
32.3552	231.0000
32.3747	205.0000
32.3941	174.0000
32.4136	199.0000
32.4331	221.0000
32.4525	189.0000
32.4720	216.0000
32.4914	207.0000
32.5109	210.0000
32.5303	196.0000
32.5498	215.0000
32.5692	227.0000
32.5887	233.0000
32.6082	199.0000
32.6276	195.0000
32.6471	224.0000
32.6665	208.0000
32.6860	225.0000
32.7054	201.0000
32.7249	220.0000
32.7444	213.0000
32.7638	174.0000
32.7833	226.0000
32.8027	214.0000
32.8222	215.0000
32.8416	210.0000
32.8611	222.0000
32.8806	228.0000
32.9000	195.0000
32.9195	224.0000
32.9389	186.0000
32.9584	204.0000
32.9778	215.0000
32.9973	199.0000
33.0168	200.0000
33.0362	209.0000
33.0557	199.0000
33.0751	205.0000
33.0946	180.0000
33.1140	214.0000
33.1335	210.0000
33.1530	206.0000
33.1724	226.0000
33.1919	217.0000
33.2113	204.0000
33.2308	183.0000
33.2502	208.0000
33.2697	184.0000
33.2892	197.0000
33.3086	194.0000
33.3281	197.0000
33.3475	171.0000
33.3670	178.0000
33.3864	193.0000
33.4059	234.0000
33.4254	210.0000
33.4448	212.0000
33.4643	200.0000
33.4837	185.0000
33.5032	217.0000
33.5226	213.0000
33.5421	213.0000
33.5616	172.0000
33.5810	195.0000
33.6005	210.0000
33.6199	207.0000
33.6394	183.0000
33.6588	217.0000
33.6783	206.0000
33.6978	223.0000
33.7172	177.0000
33.7367	210.0000
33.7561	186.0000
33.7756	193.0000
33.7950	198.0000
33.8145	209.0000
33.8340	196.0000
33.8534	197.0000
33.8729	217.0000
33.8923	217.0000
33.9118	193.0000
33.9312	219.0000
33.9507	202.0000
33.9702	189.0000
33.9896	199.0000
34.0091	214.0000
34.0285	227.0000
34.0480	200.0000
34.0674	200.0000
34.0869	204.0000
34.1064	222.0000
34.1258	186.0000
34.1453	218.0000
34.1647	193.0000
34.1842	246.0000
34.2036	206.0000
34.2231	224.0000
34.2426	183.0000
34.2620	229.0000
34.2815	213.0000
34.3009	221.0000
34.3204	216.0000
34.3398	206.0000
34.3593	222.0000
34.3788	209.0000
34.3982	198.0000
34.4177	202.0000
34.4371	205.0000
34.4566	200.0000
34.4760	185.0000
34.4955	222.0000
34.5150	194.0000
34.5344	209.0000
34.5539	198.0000
34.5733	204.0000
34.5928	180.0000
34.6122	221.0000
34.6317	217.0000
34.6512	197.0000
34.6706	239.0000
34.6901	185.0000
34.7095	206.0000
34.7290	198.0000
34.7484	176.0000
34.7679	201.0000
34.7874	201.0000
34.8068	208.0000
34.8263	209.0000
34.8457	211.0000
34.8652	215.0000
34.8846	199.0000
34.9041	219.0000
34.9236	228.0000
34.9430	210.0000
34.9625	198.0000
34.9819	201.0000
35.0014	187.0000
35.0208	191.0000
35.0403	210.0000
35.0598	206.0000
35.0792	221.0000
35.0987	205.0000
35.1181	178.0000
35.1376	212.0000
35.1570	246.0000
35.1765	230.0000
35.1960	212.0000
35.2154	210.0000
35.2349	231.0000
35.2543	221.0000
35.2738	190.0000
35.2932	224.0000
35.3127	206.0000
35.3322	216.0000
35.3516	212.0000
35.3711	188.0000
35.3905	221.0000
35.4100	201.0000
35.4294	193.0000
35.4489	228.0000
35.4683	210.0000
35.4878	231.0000
35.5073	214.0000
35.5267	197.0000
35.5462	193.0000
35.5656	207.0000
35.5851	239.0000
35.6045	218.0000
35.6240	246.0000
35.6435	186.0000
35.6629	200.0000
35.6824	230.0000
35.7018	192.0000
35.7213	191.0000
35.7407	219.0000
35.7602	230.0000
35.7797	213.0000
35.7991	197.0000
35.8186	209.0000
35.8380	236.0000
35.8575	216.0000
35.8769	224.0000
35.8964	219.0000
35.9159	198.0000
35.9353	224.0000
35.9548	199.0000
35.9742	227.0000
35.9937	212.0000
36.0131	194.0000
36.0326	216.0000
36.0521	205.0000
36.0715	194.0000
36.0910	222.0000
36.1104	211.0000
36.1299	206.0000
36.1493	214.0000
36.1688	198.0000
36.1883	201.0000
36.2077	218.0000
36.2272	206.0000
36.2466	189.0000
36.2661	222.0000
36.2855	222.0000
36.3050	191.0000
36.3245	187.0000
36.3439	208.0000
36.3634	214.0000
36.3828	186.0000
36.4023	230.0000
36.4217	214.0000
36.4412	195.0000
36.4607	223.0000
36.4801	209.0000
36.4996	226.0000
36.5190	209.0000
36.5385	204.0000
36.5579	193.0000
36.5774	201.0000
36.5969	225.0000
36.6163	193.0000
36.6358	206.0000
36.6552	213.0000
36.6747	234.0000
36.6941	195.0000
36.7136	218.0000
36.7331	245.0000
36.7525	173.0000
36.7720	200.0000
36.7914	216.0000
36.8109	201.0000
36.8303	219.0000
36.8498	194.0000
36.8693	201.0000
36.8887	228.0000
36.9082	224.0000
36.9276	215.0000
36.9471	187.0000
36.9665	208.0000
36.9860	218.0000
37.0055	192.0000
37.0249	192.0000
37.0444	200.0000
37.0638	210.0000
37.0833	204.0000
37.1027	208.0000
37.1222	230.0000
37.1417	208.0000
37.1611	228.0000
37.1806	191.0000
37.2000	199.0000
37.2195	214.0000
37.2389	211.0000
37.2584	224.0000
37.2779	211.0000
37.2973	201.0000
37.3168	207.0000
37.3362	214.0000
37.3557	217.0000
37.3751	212.0000
37.3946	196.0000
37.4141	209.0000
37.4335	216.0000
37.4530	188.0000
37.4724	225.0000
37.4919	201.0000
37.5113	192.0000
37.5308	244.0000
37.5503	221.0000
37.5697	202.0000
37.5892	207.0000
37.6086	222.0000
37.6281	203.0000
37.6475	206.0000
37.6670	207.0000
37.6865	226.0000
37.7059	189.0000
37.7254	235.0000
37.7448	212.0000
37.7643	184.0000
37.7837	191.0000
37.8032	202.0000
37.8227	212.0000
37.8421	177.0000
37.8616	224.0000
37.8810	190.0000
37.9005	197.0000
37.9199	225.0000
37.9394	201.0000
37.9589	229.0000
37.9783	195.0000
37.9978	201.0000
38.0172	210.0000
38.0367	225.0000
38.0561	240.0000
38.0756	210.0000
38.0951	213.0000
38.1145	220.0000
38.1340	236.0000
38.1534	206.0000
38.1729	201.0000
38.1923	221.0000
38.2118	235.0000
38.2312	215.0000
38.2507	214.0000
38.2702	209.0000
38.2896	192.0000
38.3091	231.0000
38.3285	211.0000
38.3480	211.0000
38.3674	198.0000
38.3869	199.0000
38.4064	203.0000
38.4258	238.0000
38.4453	209.0000
38.4647	233.0000
38.4842	219.0000
38.5036	220.0000
38.5231	216.0000
38.5426	234.0000
38.5620	231.0000
38.5815	213.0000
38.6009	208.0000
38.6204	199.0000
38.6398	215.0000
38.6593	210.0000
38.6788	239.0000
38.6982	220.0000
38.7177	205.0000
38.7371	200.0000
38.7566	229.0000
38.7760	222.0000
38.7955	227.0000
38.8150	210.0000
38.8344	185.0000
38.8539	217.0000
38.8733	234.0000
38.8928	194.0000
38.9122	198.0000
38.9317	216.0000
38.9512	207.0000
38.9706	210.0000
38.9901	208.0000
39.0095	210.0000
39.0290	222.0000
39.0484	204.0000
39.0679	220.0000
39.0874	214.0000
39.1068	229.0000
39.1263	221.0000
39.1457	186.0000
39.1652	218.0000
39.1846	196.0000
39.2041	207.0000
39.2236	222.0000
39.2430	210.0000
39.2625	215.0000
39.2819	180.0000
39.3014	223.0000
39.3208	223.0000
39.3403	235.0000
39.3598	201.0000
39.3792	225.0000
39.3987	212.0000
39.4181	205.0000
39.4376	214.0000
39.4570	242.0000
39.4765	195.0000
39.4960	222.0000
39.5154	212.0000
39.5349	203.0000
39.5543	253.0000
39.5738	215.0000
39.5932	212.0000
39.6127	230.0000
39.6322	227.0000
39.6516	220.0000
39.6711	212.0000
39.6905	225.0000
39.7100	215.0000
39.7294	198.0000
39.7489	219.0000
39.7684	218.0000
39.7878	203.0000
39.8073	217.0000
39.8267	206.0000
39.8462	220.0000
39.8656	209.0000
39.8851	201.0000
39.9046	217.0000
39.9240	208.0000
39.9435	199.0000
39.9629	216.0000
39.9824	225.0000
40.0018	227.0000
40.0213	211.0000
40.0408	202.0000
40.0602	232.0000
40.0797	211.0000
40.0991	238.0000
40.1186	210.0000
40.1380	205.0000
40.1575	202.0000
40.1770	200.0000
40.1964	207.0000
40.2159	230.0000
40.2353	223.0000
40.2548	204.0000
40.2742	185.0000
40.2937	211.0000
40.3132	241.0000
40.3326	227.0000
40.3521	202.0000
40.3715	222.0000
40.3910	209.0000
40.4104	196.0000
40.4299	217.0000
40.4494	216.0000
40.4688	208.0000
40.4883	188.0000
40.5077	211.0000
40.5272	250.0000
40.5466	221.0000
40.5661	250.0000
40.5856	213.0000
40.6050	204.0000
40.6245	183.0000
40.6439	196.0000
40.6634	220.0000
40.6828	194.0000
40.7023	204.0000
40.7218	236.0000
40.7412	213.0000
40.7607	204.0000
40.7801	200.0000
40.7996	239.0000
40.8190	226.0000
40.8385	188.0000
40.8580	211.0000
40.8774	234.0000
40.8969	201.0000
40.9163	209.0000
40.9358	192.0000
40.9552	209.0000
40.9747	221.0000
40.9941	200.0000
41.0136	211.0000
41.0331	212.0000
41.0525	198.0000
41.0720	226.0000
41.0914	198.0000
41.1109	224.0000
41.1303	221.0000
41.1498	235.0000
41.1693	211.0000
41.1887	206.0000
41.2082	228.0000
41.2276	214.0000
41.2471	239.0000
41.2665	216.0000
41.2860	210.0000
41.3055	236.0000
41.3249	227.0000
41.3444	242.0000
41.3638	216.0000
41.3833	209.0000
41.4027	231.0000
41.4222	210.0000
41.4417	257.0000
41.4611	217.0000
41.4806	243.0000
41.5000	221.0000
41.5195	233.0000
41.5389	199.0000
41.5584	219.0000
41.5779	219.0000
41.5973	203.0000
41.6168	228.0000
41.6362	221.0000
41.6557	229.0000
41.6751	219.0000
41.6946	211.0000
41.7141	227.0000
41.7335	235.0000
41.7530	222.0000
41.7724	213.0000
41.7919	192.0000
41.8113	247.0000
41.8308	224.0000
41.8503	210.0000
41.8697	221.0000
41.8892	208.0000
41.9086	228.0000
41.9281	231.0000
41.9475	246.0000
41.9670	231.0000
41.9865	194.0000
42.0059	216.0000
42.0254	238.0000
42.0448	239.0000
42.0643	220.0000
42.0837	216.0000
42.1032	226.0000
42.1227	219.0000
42.1421	218.0000
42.1616	216.0000
42.1810	228.0000
42.2005	220.0000
42.2199	208.0000
42.2394	255.0000
42.2589	232.0000
42.2783	226.0000
42.2978	244.0000
42.3172	228.0000
42.3367	240.0000
42.3561	249.0000
42.3756	215.0000
42.3951	245.0000
42.4145	242.0000
42.4340	249.0000
42.4534	236.0000
42.4729	214.0000
42.4923	254.0000
42.5118	250.0000
42.5313	215.0000
42.5507	236.0000
42.5702	225.0000
42.5896	247.0000
42.6091	247.0000
42.6285	240.0000
42.6480	256.0000
42.6675	229.0000
42.6869	244.0000
42.7064	223.0000
42.7258	215.0000
42.7453	242.0000
42.7647	258.0000
42.7842	252.0000
42.8037	213.0000
42.8231	268.0000
42.8426	248.0000
42.8620	238.0000
42.8815	251.0000
42.9009	238.0000
42.9204	244.0000
42.9399	277.0000
42.9593	280.0000
42.9788	261.0000
42.9982	270.0000
43.0177	248.0000
43.0371	254.0000
43.0566	271.0000
43.0761	282.0000
43.0955	291.0000
43.1150	287.0000
43.1344	311.0000
43.1539	285.0000
43.1733	277.0000
43.1928	295.0000
43.2123	318.0000
43.2317	307.0000
43.2512	312.0000
43.2706	315.0000
43.2901	277.0000
43.3095	331.0000
43.3290	324.0000
43.3485	348.0000
43.3679	332.0000
43.3874	316.0000
43.4068	381.0000
43.4263	364.0000
43.4457	426.0000
43.4652	448.0000
43.4847	425.0000
43.5041	495.0000
43.5236	571.0000
43.5430	564.0000
43.5625	634.0000
43.5819	654.0000
43.6014	757.0000
43.6209	862.0000
43.6403	916.0000
43.6598	1071.0000
43.6792	1255.0000
43.6987	1443.0000
43.7181	1714.0000
43.7376	1848.0000
43.7570	2072.0000
43.7765	2045.0000
43.7960	1992.0000
43.8154	2027.0000
43.8349	1959.0000
43.8543	1876.0000
43.8738	1715.0000
43.8932	1657.0000
43.9127	1430.0000
43.9322	1303.0000
43.9516	1220.0000
43.9711	1042.0000
43.9905	906.0000
44.0100	817.0000
44.0294	706.0000
44.0489	743.0000
44.0684	646.0000
44.0878	577.0000
44.1073	598.0000
44.1267	476.0000
44.1462	487.0000
44.1656	470.0000
44.1851	388.0000
44.2046	413.0000
44.2240	390.0000
44.2435	347.0000
44.2629	396.0000
44.2824	355.0000
44.3018	335.0000
44.3213	319.0000
44.3408	317.0000
44.3602	320.0000
44.3797	300.0000
44.3991	323.0000
44.4186	284.0000
44.4380	299.0000
44.4575	307.0000
44.4770	283.0000
44.4964	294.0000
44.5159	320.0000
44.5353	265.0000
44.5548	272.0000
44.5742	279.0000
44.5937	274.0000
44.6132	283.0000
44.6326	281.0000
44.6521	272.0000
44.6715	244.0000
44.6910	244.0000
44.7104	273.0000
44.7299	264.0000
44.7494	241.0000
44.7688	245.0000
44.7883	286.0000
44.8077	237.0000
44.8272	249.0000
44.8466	246.0000
44.8661	282.0000
44.8856	222.0000
44.9050	198.0000
44.9245	239.0000
44.9439	250.0000
44.9634	241.0000
44.9828	252.0000
45.0023	236.0000
45.0218	213.0000
45.0412	249.0000
45.0607	223.0000
45.0801	251.0000
45.0996	230.0000
45.1190	214.0000
45.1385	222.0000
45.1580	242.0000
45.1774	254.0000
45.1969	261.0000
45.2163	267.0000
45.2358	244.0000
45.2552	258.0000
45.2747	239.0000
45.2942	247.0000
45.3136	218.0000
45.3331	241.0000
45.3525	228.0000
45.3720	257.0000
45.3914	260.0000
45.4109	246.0000
45.4304	225.0000
45.4498	226.0000
45.4693	249.0000
45.4887	223.0000
45.5082	220.0000
45.5276	237.0000
45.5471	234.0000
45.5666	236.0000
45.5860	269.0000
45.6055	259.0000
45.6249	268.0000
45.6444	246.0000
45.6638	217.0000
45.6833	228.0000
45.7028	198.0000
45.7222	212.0000
45.7417	216.0000
45.7611	238.0000
45.7806	212.0000
45.8000	246.0000
45.8195	237.0000
45.8390	204.0000
45.8584	251.0000
45.8779	214.0000
45.8973	237.0000
45.9168	240.0000
45.9362	230.0000
45.9557	217.0000
45.9752	226.0000
45.9946	218.0000
46.0141	222.0000
46.0335	239.0000
46.0530	252.0000
46.0724	241.0000
46.0919	242.0000
46.1114	215.0000
46.1308	226.0000
46.1503	214.0000
46.1697	218.0000
46.1892	220.0000
46.2086	219.0000
46.2281	214.0000
46.2476	230.0000
46.2670	243.0000
46.2865	205.0000
46.3059	222.0000
46.3254	225.0000
46.3448	213.0000
46.3643	232.0000
46.3838	207.0000
46.4032	248.0000
46.4227	246.0000
46.4421	199.0000
46.4616	213.0000
46.4810	244.0000
46.5005	214.0000
46.5199	227.0000
46.5394	256.0000
46.5589	244.0000
46.5783	239.0000
46.5978	225.0000
46.6172	251.0000
46.6367	206.0000
46.6561	237.0000
46.6756	226.0000
46.6951	219.0000
46.7145	200.0000
46.7340	213.0000
46.7534	208.0000
46.7729	220.0000
46.7923	225.0000
46.8118	240.0000
46.8313	226.0000
46.8507	254.0000
46.8702	216.0000
46.8896	236.0000
46.9091	267.0000
46.9285	233.0000
46.9480	225.0000
46.9675	214.0000
46.9869	210.0000
47.0064	232.0000
47.0258	220.0000
47.0453	244.0000
47.0647	223.0000
47.0842	208.0000
47.1037	214.0000
47.1231	228.0000
47.1426	226.0000
47.1620	238.0000
47.1815	215.0000
47.2009	213.0000
47.2204	225.0000
47.2399	231.0000
47.2593	260.0000
47.2788	240.0000
47.2982	217.0000
47.3177	227.0000
47.3371	202.0000
47.3566	237.0000
47.3761	241.0000
47.3955	246.0000
47.4150	221.0000
47.4344	211.0000
47.4539	230.0000
47.4733	221.0000
47.4928	229.0000
47.5123	244.0000
47.5317	221.0000
47.5512	272.0000
47.5706	217.0000
47.5901	243.0000
47.6095	232.0000
47.6290	245.0000
47.6485	243.0000
47.6679	226.0000
47.6874	256.0000
47.7068	196.0000
47.7263	196.0000
47.7457	237.0000
47.7652	235.0000
47.7847	203.0000
47.8041	214.0000
47.8236	230.0000
47.8430	226.0000
47.8625	202.0000
47.8819	231.0000
47.9014	226.0000
47.9209	220.0000
47.9403	212.0000
47.9598	235.0000
47.9792	197.0000
47.9987	225.0000
48.0181	255.0000
48.0376	233.0000
48.0571	221.0000
48.0765	244.0000
48.0960	208.0000
48.1154	250.0000
48.1349	219.0000
48.1543	220.0000
48.1738	244.0000
48.1933	219.0000
48.2127	258.0000
48.2322	227.0000
48.2516	227.0000
48.2711	232.0000
48.2905	209.0000
48.3100	225.0000
48.3295	218.0000
48.3489	228.0000
48.3684	249.0000
48.3878	240.0000
48.4073	229.0000
48.4267	225.0000
48.4462	200.0000
48.4657	226.0000
48.4851	226.0000
48.5046	220.0000
48.5240	219.0000
48.5435	219.0000
48.5629	218.0000
48.5824	215.0000
48.6019	225.0000
48.6213	235.0000
48.6408	226.0000
48.6602	273.0000
48.6797	225.0000
48.6991	225.0000
48.7186	227.0000
48.7381	240.0000
48.7575	242.0000
48.7770	223.0000
48.7964	256.0000
48.8159	238.0000
48.8353	211.0000
48.8548	220.0000
48.8743	244.0000
48.8937	256.0000
48.9132	229.0000
48.9326	201.0000
48.9521	234.0000
48.9715	232.0000
48.9910	226.0000
49.0105	243.0000
49.0299	255.0000
49.0494	250.0000
49.0688	245.0000
49.0883	242.0000
49.1077	211.0000
49.1272	240.0000
49.1467	230.0000
49.1661	247.0000
49.1856	246.0000
49.2050	255.0000
49.2245	240.0000
49.2439	226.0000
49.2634	227.0000
49.2829	240.0000
49.3023	226.0000
49.3218	206.0000
49.3412	266.0000
49.3607	213.0000
49.3801	257.0000
49.3996	251.0000
49.4190	220.0000
49.4385	237.0000
49.4580	235.0000
49.4774	251.0000
49.4969	282.0000
49.5163	239.0000
49.5358	256.0000
49.5552	257.0000
49.5747	251.0000
49.5942	250.0000
49.6136	261.0000
49.6331	225.0000
49.6525	247.0000
49.6720	269.0000
49.6914	250.0000
49.7109	242.0000
49.7304	257.0000
49.7498	250.0000
49.7693	270.0000
49.7887	243.0000
49.8082	286.0000
49.8276	250.0000
49.8471	261.0000
49.8666	257.0000
49.8860	285.0000
49.9055	257.0000
49.9249	264.0000
49.9444	232.0000
49.9638	278.0000
49.9833	259.0000
50.0028	285.0000
50.0222	288.0000
50.0417	282.0000
50.0611	237.0000
50.0806	298.0000
50.1000	306.0000
50.1195	275.0000
50.1390	267.0000
50.1584	286.0000
50.1779	276.0000
50.1973	266.0000
50.2168	287.0000
50.2362	299.0000
50.2557	320.0000
50.2752	333.0000
50.2946	301.0000
50.3141	344.0000
50.3335	309.0000
50.3530	342.0000
50.3724	383.0000
50.3919	382.0000
50.4114	416.0000
50.4308	398.0000
50.4503	426.0000
50.4697	376.0000
50.4892	420.0000
50.5086	437.0000
50.5281	453.0000
50.5476	494.0000
50.5670	538.0000
50.5865	571.0000
50.6059	574.0000
50.6254	616.0000
50.6448	676.0000
50.6643	742.0000
50.6838	802.0000
50.7032	824.0000
50.7227	933.0000
50.7421	1037.0000
50.7616	1161.0000
50.7810	1227.0000
50.8005	1347.0000
50.8200	1381.0000
50.8394	1550.0000
50.8589	1635.0000
50.8783	1615.0000
50.8978	1608.0000
50.9172	1558.0000
50.9367	1573.0000
50.9562	1510.0000
50.9756	1364.0000
50.9951	1315.0000
51.0145	1275.0000
51.0340	1129.0000
51.0534	1040.0000
51.0729	1023.0000
51.0924	881.0000
51.1118	790.0000
51.1313	709.0000
51.1507	667.0000
51.1702	606.0000
51.1896	538.0000
51.2091	542.0000
51.2286	473.0000
51.2480	471.0000
51.2675	429.0000
51.2869	390.0000
51.3064	354.0000
51.3258	344.0000
51.3453	389.0000
51.3648	328.0000
51.3842	356.0000
51.4037	345.0000
51.4231	347.0000
51.4426	321.0000
51.4620	309.0000
51.4815	305.0000
51.5010	288.0000
51.5204	262.0000
51.5399	306.0000
51.5593	245.0000
51.5788	284.0000
51.5982	293.0000
51.6177	274.0000
51.6372	272.0000
51.6566	272.0000
51.6761	259.0000
51.6955	271.0000
51.7150	265.0000
51.7344	250.0000
51.7539	239.0000
51.7734	222.0000
51.7928	264.0000
51.8123	302.0000
51.8317	246.0000
51.8512	233.0000
51.8706	240.0000
51.8901	259.0000
51.9096	239.0000
51.9290	241.0000
51.9485	260.0000
51.9679	234.0000
51.9874	238.0000
52.0068	251.0000
52.0263	254.0000
52.0458	246.0000
52.0652	222.0000
52.0847	247.0000
52.1041	242.0000
52.1236	248.0000
52.1430	251.0000
52.1625	221.0000
52.1819	253.0000
52.2014	257.0000
52.2209	198.0000
52.2403	223.0000
52.2598	242.0000
52.2792	241.0000
52.2987	256.0000
52.3181	244.0000
52.3376	205.0000
52.3571	225.0000
52.3765	226.0000
52.3960	268.0000
52.4154	229.0000
52.4349	223.0000
52.4543	238.0000
52.4738	245.0000
52.4933	226.0000
52.5127	216.0000
52.5322	228.0000
52.5516	249.0000
52.5711	221.0000
52.5905	245.0000
52.6100	211.0000
52.6295	238.0000
52.6489	189.0000
52.6684	232.0000
52.6878	230.0000
52.7073	244.0000
52.7267	224.0000
52.7462	253.0000
52.7657	228.0000
52.7851	240.0000
52.8046	235.0000
52.8240	216.0000
52.8435	219.0000
52.8629	234.0000
52.8824	229.0000
52.9019	249.0000
52.9213	208.0000
52.9408	243.0000
52.9602	184.0000
52.9797	220.0000
52.9991	209.0000
53.0186	232.0000
53.0381	220.0000
53.0575	252.0000
53.0770	223.0000
53.0964	235.0000
53.1159	227.0000
53.1353	235.0000
53.1548	209.0000
53.1743	215.0000
53.1937	235.0000
53.2132	238.0000
53.2326	230.0000
53.2521	229.0000
53.2715	235.0000
53.2910	220.0000
53.3105	220.0000
53.3299	247.0000
53.3494	226.0000
53.3688	223.0000
53.3883	245.0000
53.4077	208.0000
53.4272	220.0000
53.4467	238.0000
53.4661	223.0000
53.4856	252.0000
53.5050	237.0000
53.5245	240.0000
53.5439	211.0000
53.5634	222.0000
53.5829	204.0000
53.6023	213.0000
53.6218	216.0000
53.6412	228.0000
53.6607	214.0000
53.6801	250.0000
53.6996	239.0000
53.7191	216.0000
53.7385	217.0000
53.7580	202.0000
53.7774	221.0000
53.7969	233.0000
53.8163	224.0000
53.8358	241.0000
53.8553	227.0000
53.8747	223.0000
53.8942	216.0000
53.9136	211.0000
53.9331	239.0000
53.9525	220.0000
53.9720	211.0000
53.9915	252.0000
54.0109	208.0000
54.0304	230.0000
54.0498	212.0000
54.0693	187.0000
54.0887	228.0000
54.1082	245.0000
54.1277	225.0000
54.1471	228.0000
54.1666	216.0000
54.1860	258.0000
54.2055	201.0000
54.2249	219.0000
54.2444	203.0000
54.2639	203.0000
54.2833	193.0000
54.3028	224.0000
54.3222	236.0000
54.3417	210.0000
54.3611	222.0000
54.3806	221.0000
54.4001	243.0000
54.4195	244.0000
54.4390	235.0000
54.4584	230.0000
54.4779	217.0000
54.4973	202.0000
54.5168	236.0000
54.5363	235.0000
54.5557	201.0000
54.5752	227.0000
54.5946	234.0000
54.6141	217.0000
54.6335	228.0000
54.6530	210.0000
54.6725	212.0000
54.6919	233.0000
54.7114	226.0000
54.7308	216.0000
54.7503	219.0000
54.7697	224.0000
54.7892	220.0000
54.8087	206.0000
54.8281	212.0000
54.8476	241.0000
54.8670	224.0000
54.8865	213.0000
54.9059	205.0000
54.9254	232.0000
54.9448	245.0000
54.9643	215.0000
54.9838	249.0000
55.0032	212.0000
55.0227	225.0000
55.0421	223.0000
55.0616	212.0000
55.0810	211.0000
55.1005	223.0000
55.1200	222.0000
55.1394	241.0000
55.1589	263.0000
55.1783	203.0000
55.1978	209.0000
55.2172	216.0000
55.2367	221.0000
55.2562	208.0000
55.2756	209.0000
55.2951	223.0000
55.3145	226.0000
55.3340	215.0000
55.3534	215.0000
55.3729	199.0000
55.3924	198.0000
55.4118	204.0000
55.4313	244.0000
55.4507	225.0000
55.4702	229.0000
55.4896	235.0000
55.5091	201.0000
55.5286	230.0000
55.5480	225.0000
55.5675	225.0000
55.5869	219.0000
55.6064	209.0000
55.6258	226.0000
55.6453	238.0000
55.6648	235.0000
55.6842	198.0000
55.7037	225.0000
55.7231	244.0000
55.7426	223.0000
55.7620	216.0000
55.7815	274.0000
55.8010	202.0000
55.8204	220.0000
55.8399	224.0000
55.8593	236.0000
55.8788	211.0000
55.8982	244.0000
55.9177	240.0000
55.9372	220.0000
55.9566	232.0000
55.9761	219.0000
55.9955	259.0000
56.0150	199.0000
56.0344	228.0000
56.0539	239.0000
56.0734	213.0000
56.0928	209.0000
56.1123	208.0000
56.1317	236.0000
56.1512	237.0000
56.1706	215.0000
56.1901	229.0000
56.2096	207.0000
56.2290	220.0000
56.2485	202.0000
56.2679	230.0000
56.2874	231.0000
56.3068	201.0000
56.3263	231.0000
56.3458	225.0000
56.3652	210.0000
56.3847	211.0000
56.4041	197.0000
56.4236	205.0000
56.4430	234.0000
56.4625	218.0000
56.4820	243.0000
56.5014	208.0000
56.5209	216.0000
56.5403	236.0000
56.5598	260.0000
56.5792	246.0000
56.5987	226.0000
56.6182	241.0000
56.6376	225.0000
56.6571	219.0000
56.6765	238.0000
56.6960	219.0000
56.7154	221.0000
56.7349	190.0000
56.7544	224.0000
56.7738	210.0000
56.7933	221.0000
56.8127	205.0000
56.8322	199.0000
56.8516	208.0000
56.8711	210.0000
56.8906	215.0000
56.9100	223.0000
56.9295	221.0000
56.9489	217.0000
56.9684	221.0000
56.9878	202.0000
57.0073	204.0000
57.0268	203.0000
57.0462	239.0000
57.0657	192.0000
57.0851	253.0000
57.1046	246.0000
57.1240	219.0000
57.1435	234.0000
57.1630	240.0000
57.1824	208.0000
57.2019	208.0000
57.2213	237.0000
57.2408	211.0000
57.2602	218.0000
57.2797	214.0000
57.2992	209.0000
57.3186	218.0000
57.3381	247.0000
57.3575	219.0000
57.3770	223.0000
57.3964	205.0000
57.4159	214.0000
57.4354	216.0000
57.4548	206.0000
57.4743	214.0000
57.4937	212.0000
57.5132	222.0000
57.5326	221.0000
57.5521	229.0000
57.5716	211.0000
57.5910	201.0000
57.6105	219.0000
57.6299	193.0000
57.6494	241.0000
57.6688	212.0000
57.6883	241.0000
57.7077	211.0000
57.7272	248.0000
57.7467	204.0000
57.7661	210.0000
57.7856	206.0000
57.8050	227.0000
57.8245	199.0000
57.8439	199.0000
57.8634	223.0000
57.8829	225.0000
57.9023	210.0000
57.9218	222.0000
57.9412	205.0000
57.9607	225.0000
57.9801	233.0000
57.9996	223.0000
58.0191	216.0000
58.0385	214.0000
58.0580	225.0000
58.0774	217.0000
58.0969	198.0000
58.1163	224.0000
58.1358	231.0000
58.1553	226.0000
58.1747	209.0000
58.1942	236.0000
58.2136	236.0000
58.2331	222.0000
58.2525	251.0000
58.2720	242.0000
58.2915	217.0000
58.3109	209.0000
58.3304	225.0000
58.3498	207.0000
58.3693	226.0000
58.3887	216.0000
58.4082	238.0000
58.4277	209.0000
58.4471	222.0000
58.4666	236.0000
58.4860	225.0000
58.5055	231.0000
58.5249	209.0000
58.5444	213.0000
58.5639	246.0000
58.5833	205.0000
58.6028	220.0000
58.6222	195.0000
58.6417	229.0000
58.6611	240.0000
58.6806	232.0000
58.7001	236.0000
58.7195	228.0000
58.7390	200.0000
58.7584	254.0000
58.7779	229.0000
58.7973	217.0000
58.8168	214.0000
58.8363	212.0000
58.8557	223.0000
58.8752	187.0000
58.8946	250.0000
58.9141	213.0000
58.9335	202.0000
58.9530	211.0000
58.9725	237.0000
58.9919	192.0000
59.0114	236.0000
59.0308	232.0000
59.0503	231.0000
59.0697	195.0000
59.0892	213.0000
59.1087	238.0000
59.1281	239.0000
59.1476	213.0000
59.1670	238.0000
59.1865	226.0000
59.2059	205.0000
59.2254	227.0000
59.2449	239.0000
59.2643	222.0000
59.2838	216.0000
59.3032	206.0000
59.3227	214.0000
59.3421	209.0000
59.3616	217.0000
59.3811	225.0000
59.4005	181.0000
59.4200	208.0000
59.4394	237.0000
59.4589	239.0000
59.4783	226.0000
59.4978	207.0000
59.5173	233.0000
59.5367	240.0000
59.5562	218.0000
59.5756	220.0000
59.5951	229.0000
59.6145	212.0000
59.6340	228.0000
59.6535	226.0000
59.6729	219.0000
59.6924	234.0000
59.7118	234.0000
59.7313	217.0000
59.7507	229.0000
59.7702	242.0000
59.7897	226.0000
59.8091	203.0000
59.8286	225.0000
59.8480	220.0000
59.8675	225.0000
59.8869	243.0000
59.9064	203.0000
59.9259	222.0000
59.9453	231.0000
59.9648	223.0000
59.9842	211.0000
60.0037	205.0000
60.0231	229.0000
60.0426	205.0000
60.0621	197.0000
60.0815	219.0000
60.1010	235.0000
60.1204	211.0000
60.1399	232.0000
60.1593	240.0000
60.1788	227.0000
60.1983	194.0000
60.2177	212.0000
60.2372	227.0000
60.2566	240.0000
60.2761	218.0000
60.2955	239.0000
60.3150	224.0000
60.3345	219.0000
60.3539	217.0000
60.3734	231.0000
60.3928	218.0000
60.4123	217.0000
60.4317	236.0000
60.4512	219.0000
60.4706	221.0000
60.4901	228.0000
60.5096	210.0000
60.5290	219.0000
60.5485	194.0000
60.5679	226.0000
60.5874	199.0000
60.6068	239.0000
60.6263	208.0000
60.6458	227.0000
60.6652	231.0000
60.6847	230.0000
60.7041	214.0000
60.7236	226.0000
60.7430	234.0000
60.7625	232.0000
60.7820	196.0000
60.8014	193.0000
60.8209	227.0000
60.8403	218.0000
60.8598	230.0000
60.8792	227.0000
60.8987	208.0000
60.9182	237.0000
60.9376	213.0000
60.9571	212.0000
60.9765	207.0000
60.9960	241.0000
61.0154	208.0000
61.0349	201.0000
61.0544	213.0000
61.0738	229.0000
61.0933	241.0000
61.1127	221.0000
61.1322	230.0000
61.1516	249.0000
61.1711	216.0000
61.1906	219.0000
61.2100	216.0000
61.2295	232.0000
61.2489	226.0000
61.2684	229.0000
61.2878	202.0000
61.3073	211.0000
61.3268	207.0000
61.3462	215.0000
61.3657	229.0000
61.3851	248.0000
61.4046	237.0000
61.4240	228.0000
61.4435	224.0000
61.4630	226.0000
61.4824	248.0000
61.5019	223.0000
61.5213	232.0000
61.5408	237.0000
61.5602	214.0000
61.5797	201.0000
61.5992	219.0000
61.6186	224.0000
61.6381	246.0000
61.6575	242.0000
61.6770	216.0000
61.6964	208.0000
61.7159	206.0000
61.7354	231.0000
61.7548	190.0000
61.7743	234.0000
61.7937	217.0000
61.8132	231.0000
61.8326	214.0000
61.8521	202.0000
61.8716	208.0000
61.8910	233.0000
61.9105	220.0000
61.9299	233.0000
61.9494	235.0000
61.9688	212.0000
61.9883	237.0000
62.0078	227.0000
62.0272	243.0000
62.0467	230.0000
62.0661	217.0000
62.0856	186.0000
62.1050	237.0000
62.1245	213.0000
62.1440	213.0000
62.1634	237.0000
62.1829	239.0000
62.2023	216.0000
62.2218	233.0000
62.2412	202.0000
62.2607	189.0000
62.2802	227.0000
62.2996	227.0000
62.3191	216.0000
62.3385	219.0000
62.3580	231.0000
62.3774	201.0000
62.3969	206.0000
62.4164	211.0000
62.4358	214.0000
62.4553	224.0000
62.4747	211.0000
62.4942	214.0000
62.5136	212.0000
62.5331	245.0000
62.5526	250.0000
62.5720	201.0000
62.5915	226.0000
62.6109	243.0000
62.6304	216.0000
62.6498	199.0000
62.6693	260.0000
62.6888	200.0000
62.7082	223.0000
62.7277	204.0000
62.7471	224.0000
62.7666	217.0000
62.7860	181.0000
62.8055	206.0000
62.8250	249.0000
62.8444	237.0000
62.8639	207.0000
62.8833	237.0000
62.9028	218.0000
62.9222	227.0000
62.9417	222.0000
62.9612	223.0000
62.9806	228.0000
63.0001	217.0000
63.0195	240.0000
63.0390	218.0000
63.0584	235.0000
63.0779	213.0000
63.0974	231.0000
63.1168	197.0000
63.1363	207.0000
63.1557	237.0000
63.1752	224.0000
63.1946	187.0000
63.2141	218.0000
63.2336	200.0000
63.2530	217.0000
63.2725	208.0000
63.2919	215.0000
63.3114	205.0000
63.3308	252.0000
63.3503	199.0000
63.3697	229.0000
63.3892	218.0000
63.4087	207.0000
63.4281	206.0000
63.4476	230.0000
63.4670	241.0000
63.4865	224.0000
63.5059	202.0000
63.5254	238.0000
63.5449	207.0000
63.5643	230.0000
63.5838	214.0000
63.6032	234.0000
63.6227	197.0000
63.6421	230.0000
63.6616	243.0000
63.6811	224.0000
63.7005	230.0000
63.7200	232.0000
63.7394	231.0000
63.7589	220.0000
63.7783	203.0000
63.7978	227.0000
63.8173	229.0000
63.8367	186.0000
63.8562	217.0000
63.8756	219.0000
63.8951	221.0000
63.9145	220.0000
63.9340	244.0000
63.9535	201.0000
63.9729	203.0000
63.9924	228.0000
64.0118	234.0000
64.0313	247.0000
64.0507	219.0000
64.0702	234.0000
64.0897	221.0000
64.1091	199.0000
64.1286	232.0000
64.1480	218.0000
64.1675	229.0000
64.1869	210.0000
64.2064	204.0000
64.2259	206.0000
64.2453	238.0000
64.2648	207.0000
64.2842	241.0000
64.3037	199.0000
64.3231	226.0000
64.3426	248.0000
64.3621	215.0000
64.3815	222.0000
64.4010	211.0000
64.4204	205.0000
64.4399	223.0000
64.4593	234.0000
64.4788	208.0000
64.4983	186.0000
64.5177	229.0000
64.5372	242.0000
64.5566	228.0000
64.5761	211.0000
64.5955	240.0000
64.6150	206.0000
64.6345	224.0000
64.6539	188.0000
64.6734	235.0000
64.6928	200.0000
64.7123	215.0000
64.7317	219.0000
64.7512	212.0000
64.7707	249.0000
64.7901	233.0000
64.8096	228.0000
64.8290	213.0000
64.8485	261.0000
64.8679	209.0000
64.8874	211.0000
64.9069	256.0000
64.9263	179.0000
64.9458	196.0000
64.9652	227.0000
64.9847	227.0000
65.0041	233.0000
65.0236	228.0000
65.0431	232.0000
65.0625	211.0000
65.0820	211.0000
65.1014	230.0000
65.1209	206.0000
65.1403	239.0000
65.1598	235.0000
65.1793	217.0000
65.1987	217.0000
65.2182	225.0000
65.2376	209.0000
65.2571	204.0000
65.2765	200.0000
65.2960	237.0000
65.3155	212.0000
65.3349	250.0000
65.3544	200.0000
65.3738	221.0000
65.3933	215.0000
65.4127	233.0000
65.4322	194.0000
65.4517	242.0000
65.4711	223.0000
65.4906	227.0000
65.5100	206.0000
65.5295	221.0000
65.5489	224.0000
65.5684	208.0000
65.5879	227.0000
65.6073	206.0000
65.6268	212.0000
65.6462	223.0000
65.6657	221.0000
65.6851	225.0000
65.7046	214.0000
65.7241	219.0000
65.7435	197.0000
65.7630	239.0000
65.7824	221.0000
65.8019	229.0000
65.8213	227.0000
65.8408	219.0000
65.8603	226.0000
65.8797	232.0000
65.8992	225.0000
65.9186	227.0000
65.9381	234.0000
65.9575	242.0000
65.9770	230.0000
65.9965	208.0000
66.0159	226.0000
66.0354	223.0000
66.0548	247.0000
66.0743	197.0000
66.0937	213.0000
66.1132	212.0000
66.1326	234.0000
66.1521	196.0000
66.1716	234.0000
66.1910	210.0000
66.2105	223.0000
66.2299	219.0000
66.2494	221.0000
66.2688	210.0000
66.2883	216.0000
66.3078	234.0000
66.3272	214.0000
66.3467	220.0000
66.3661	231.0000
66.3856	241.0000
66.4050	214.0000
66.4245	259.0000
66.4440	231.0000
66.4634	206.0000
66.4829	241.0000
66.5023	200.0000
66.5218	191.0000
66.5412	188.0000
66.5607	222.0000
66.5802	231.0000
66.5996	203.0000
66.6191	238.0000
66.6385	198.0000
66.6580	218.0000
66.6774	205.0000
66.6969	243.0000
66.7164	223.0000
66.7358	228.0000
66.7553	210.0000
66.7747	225.0000
66.7942	238.0000
66.8136	223.0000
66.8331	216.0000
66.8526	248.0000
66.8720	237.0000
66.8915	249.0000
66.9109	231.0000
66.9304	230.0000
66.9498	218.0000
66.9693	242.0000
66.9888	235.0000
67.0082	216.0000
67.0277	227.0000
67.0471	223.0000
67.0666	199.0000
67.0860	194.0000
67.1055	202.0000
67.1250	234.0000
67.1444	230.0000
67.1639	217.0000
67.1833	233.0000
67.2028	201.0000
67.2222	210.0000
67.2417	216.0000
67.2612	216.0000
67.2806	204.0000
67.3001	231.0000
67.3195	216.0000
67.3390	238.0000
67.3584	195.0000
67.3779	202.0000
67.3974	201.0000
67.4168	212.0000
67.4363	257.0000
67.4557	217.0000
67.4752	213.0000
67.4946	234.0000
67.5141	240.0000
67.5336	238.0000
67.5530	210.0000
67.5725	228.0000
67.5919	211.0000
67.6114	230.0000
67.6308	232.0000
67.6503	226.0000
67.6698	197.0000
67.6892	224.0000
67.7087	196.0000
67.7281	226.0000
67.7476	213.0000
67.7670	234.0000
67.7865	216.0000
67.8060	236.0000
67.8254	226.0000
67.8449	201.0000
67.8643	223.0000
67.8838	234.0000
67.9032	219.0000
67.9227	214.0000
67.9422	211.0000
67.9616	220.0000
67.9811	232.0000
68.0005	234.0000
68.0200	191.0000
68.0394	213.0000
68.0589	238.0000
68.0784	196.0000
68.0978	235.0000
68.1173	212.0000
68.1367	217.0000
68.1562	228.0000
68.1756	221.0000
68.1951	212.0000
68.2146	211.0000
68.2340	231.0000
68.2535	227.0000
68.2729	215.0000
68.2924	209.0000
68.3118	216.0000
68.3313	247.0000
68.3508	216.0000
68.3702	236.0000
68.3897	215.0000
68.4091	230.0000
68.4286	212.0000
68.4480	217.0000
68.4675	215.0000
68.4870	238.0000
68.5064	226.0000
68.5259	213.0000
68.5453	237.0000
68.5648	243.0000
68.5842	245.0000
68.6037	236.0000
68.6232	224.0000
68.6426	227.0000
68.6621	222.0000
68.6815	194.0000
68.7010	204.0000
68.7204	230.0000
68.7399	238.0000
68.7594	197.0000
68.7788	213.0000
68.7983	211.0000
68.8177	205.0000
68.8372	225.0000
68.8566	204.0000
68.8761	215.0000
68.8955	244.0000
68.9150	221.0000
68.9345	218.0000
68.9539	229.0000
68.9734	229.0000
68.9928	203.0000
69.0123	209.0000
69.0317	229.0000
69.0512	214.0000
69.0707	234.0000
69.0901	224.0000
69.1096	210.0000
69.1290	246.0000
69.1485	235.0000
69.1679	224.0000
69.1874	220.0000
69.2069	248.0000
69.2263	238.0000
69.2458	210.0000
69.2652	222.0000
69.2847	223.0000
69.3041	207.0000
69.3236	244.0000
69.3431	197.0000
69.3625	228.0000
69.3820	249.0000
69.4014	211.0000
69.4209	227.0000
69.4403	204.0000
69.4598	225.0000
69.4793	231.0000
69.4987	221.0000
69.5182	217.0000
69.5376	235.0000
69.5571	225.0000
69.5765	252.0000
69.5960	235.0000
69.6155	265.0000
69.6349	211.0000
69.6544	236.0000
69.6738	206.0000
69.6933	196.0000
69.7127	252.0000
69.7322	268.0000
69.7517	198.0000
69.7711	200.0000
69.7906	240.0000
69.8100	247.0000
69.8295	253.0000
69.8489	226.0000
69.8684	252.0000
69.8879	232.0000
69.9073	225.0000
69.9268	220.0000
69.9462	224.0000
69.9657	208.0000
69.9851	219.0000
70.0046	223.0000
70.0241	225.0000
70.0435	227.0000
70.0630	223.0000
70.0824	248.0000
70.1019	177.0000
70.1213	230.0000
70.1408	234.0000
70.1603	221.0000
70.1797	229.0000
70.1992	246.0000
70.2186	221.0000
70.2381	230.0000
70.2575	208.0000
70.2770	226.0000
70.2965	216.0000
70.3159	206.0000
70.3354	238.0000
70.3548	229.0000
70.3743	212.0000
70.3937	214.0000
70.4132	232.0000
70.4327	192.0000
70.4521	206.0000
70.4716	232.0000
70.4910	212.0000
70.5105	209.0000
70.5299	231.0000
70.5494	223.0000
70.5689	236.0000
70.5883	225.0000
70.6078	237.0000
70.6272	223.0000
70.6467	230.0000
70.6661	219.0000
70.6856	213.0000
70.7051	235.0000
70.7245	223.0000
70.7440	218.0000
70.7634	229.0000
70.7829	221.0000
70.8023	207.0000
70.8218	220.0000
70.8413	193.0000
70.8607	231.0000
70.8802	224.0000
70.8996	247.0000
70.9191	212.0000
70.9385	216.0000
70.9580	226.0000
70.9775	223.0000
70.9969	217.0000
71.0164	212.0000
71.0358	226.0000
71.0553	244.0000
71.0747	245.0000
71.0942	235.0000
71.1137	217.0000
71.1331	197.0000
71.1526	197.0000
71.1720	223.0000
71.1915	205.0000
71.2109	235.0000
71.2304	202.0000
71.2499	212.0000
71.2693	218.0000
71.2888	220.0000
71.3082	189.0000
71.3277	200.0000
71.3471	201.0000
71.3666	218.0000
71.3861	226.0000
71.4055	221.0000
71.4250	232.0000
71.4444	204.0000
71.4639	214.0000
71.4833	215.0000
71.5028	236.0000
71.5223	233.0000
71.5417	219.0000
71.5612	200.0000
71.5806	250.0000
71.6001	206.0000
71.6195	237.0000
71.6390	210.0000
71.6584	213.0000
71.6779	229.0000
71.6974	232.0000
71.7168	197.0000
71.7363	224.0000
71.7557	206.0000
71.7752	234.0000
71.7946	250.0000
71.8141	254.0000
71.8336	202.0000
71.8530	235.0000
71.8725	217.0000
71.8919	252.0000
71.9114	206.0000
71.9308	213.0000
71.9503	226.0000
71.9698	213.0000
71.9892	185.0000
72.0087	234.0000
72.0281	227.0000
72.0476	209.0000
72.0670	191.0000
72.0865	218.0000
72.1060	231.0000
72.1254	231.0000
72.1449	213.0000
72.1643	234.0000
72.1838	235.0000
72.2032	230.0000
72.2227	223.0000
72.2422	228.0000
72.2616	206.0000
72.2811	220.0000
72.3005	237.0000
72.3200	239.0000
72.3394	238.0000
72.3589	210.0000
72.3784	226.0000
72.3978	229.0000
72.4173	212.0000
72.4367	244.0000
72.4562	221.0000
72.4756	217.0000
72.4951	235.0000
72.5146	230.0000
72.5340	221.0000
72.5535	251.0000
72.5729	220.0000
72.5924	215.0000
72.6118	224.0000
72.6313	195.0000
72.6508	214.0000
72.6702	240.0000
72.6897	226.0000
72.7091	230.0000
72.7286	206.0000
72.7480	214.0000
72.7675	217.0000
72.7870	208.0000
72.8064	222.0000
72.8259	210.0000
72.8453	231.0000
72.8648	226.0000
72.8842	204.0000
72.9037	206.0000
72.9232	218.0000
72.9426	219.0000
72.9621	216.0000
72.9815	228.0000
73.0010	218.0000
73.0204	240.0000
73.0399	224.0000
73.0594	228.0000
73.0788	189.0000
73.0983	215.0000
73.1177	240.0000
73.1372	223.0000
73.1566	220.0000
73.1761	265.0000
73.1956	214.0000
73.2150	220.0000
73.2345	240.0000
73.2539	228.0000
73.2734	217.0000
73.2928	219.0000
73.3123	208.0000
73.3318	217.0000
73.3512	232.0000
73.3707	242.0000
73.3901	228.0000
73.4096	248.0000
73.4290	247.0000
73.4485	253.0000
73.4680	212.0000
73.4874	204.0000
73.5069	204.0000
73.5263	236.0000
73.5458	237.0000
73.5652	233.0000
73.5847	221.0000
73.6042	205.0000
73.6236	197.0000
73.6431	224.0000
73.6625	216.0000
73.6820	255.0000
73.7014	231.0000
73.7209	221.0000
73.7404	234.0000
73.7598	224.0000
73.7793	202.0000
73.7987	223.0000
73.8182	223.0000
73.8376	247.0000
73.8571	201.0000
73.8766	213.0000
73.8960	222.0000
73.9155	251.0000
73.9349	214.0000
73.9544	229.0000
73.9738	223.0000
73.9933	248.0000
74.0128	214.0000
74.0322	231.0000
74.0517	220.0000
74.0711	251.0000
74.0906	241.0000
74.1100	267.0000
74.1295	251.0000
74.1490	246.0000
74.1684	221.0000
74.1879	227.0000
74.2073	211.0000
74.2268	248.0000
74.2462	218.0000
74.2657	247.0000
74.2852	219.0000
74.3046	216.0000
74.3241	244.0000
74.3435	218.0000
74.3630	258.0000
74.3824	240.0000
74.4019	217.0000
74.4213	231.0000
74.4408	258.0000
74.4603	207.0000
74.4797	225.0000
74.4992	245.0000
74.5186	271.0000
74.5381	220.0000
74.5575	256.0000
74.5770	236.0000
74.5965	232.0000
74.6159	235.0000
74.6354	229.0000
74.6548	254.0000
74.6743	289.0000
74.6937	253.0000
74.7132	279.0000
74.7327	279.0000
74.7521	230.0000
74.7716	307.0000
74.7910	268.0000
74.8105	247.0000
74.8299	317.0000
74.8494	288.0000
74.8689	242.0000
74.8883	291.0000
74.9078	244.0000
74.9272	251.0000
74.9467	248.0000
74.9661	296.0000
74.9856	262.0000
75.0051	256.0000
75.0245	245.0000
75.0440	256.0000
75.0634	285.0000
75.0829	234.0000
75.1023	262.0000
75.1218	253.0000
75.1413	225.0000
75.1607	276.0000
75.1802	247.0000
75.1996	259.0000
75.2191	236.0000
75.2385	233.0000
75.2580	270.0000
75.2775	253.0000
75.2969	250.0000
75.3164	254.0000
75.3358	274.0000
75.3553	239.0000
75.3747	257.0000
75.3942	267.0000
75.4137	215.0000
75.4331	227.0000
75.4526	250.0000
75.4720	228.0000
75.4915	250.0000
75.5109	205.0000
75.5304	222.0000
75.5499	243.0000
75.5693	227.0000
75.5888	231.0000
75.6082	222.0000
75.6277	243.0000
75.6471	250.0000
75.6666	208.0000
75.6861	225.0000
75.7055	217.0000
75.7250	203.0000
75.7444	218.0000
75.7639	211.0000
75.7833	230.0000
75.8028	234.0000
75.8223	197.0000
75.8417	200.0000
75.8612	222.0000
75.8806	238.0000
75.9001	227.0000
75.9195	242.0000
75.9390	193.0000
75.9585	225.0000
75.9779	228.0000
75.9974	232.0000
76.0168	232.0000
76.0363	255.0000
76.0557	233.0000
76.0752	198.0000
76.0947	217.0000
76.1141	261.0000
76.1336	264.0000
76.1530	228.0000
76.1725	237.0000
76.1919	235.0000
76.2114	251.0000
76.2309	240.0000
76.2503	206.0000
76.2698	219.0000
76.2892	240.0000
76.3087	253.0000
76.3281	234.0000
76.3476	245.0000
76.3671	247.0000
76.3865	210.0000
76.4060	216.0000
76.4254	224.0000
76.4449	267.0000
76.4643	241.0000
76.4838	235.0000
76.5033	217.0000
76.5227	212.0000
76.5422	249.0000
76.5616	220.0000
76.5811	209.0000
76.6005	234.0000
76.6200	205.0000
76.6395	204.0000
76.6589	236.0000
76.6784	252.0000
76.6978	231.0000
76.7173	238.0000
76.7367	212.0000
76.7562	221.0000
76.7757	229.0000
76.7951	219.0000
76.8146	236.0000
76.8340	198.0000
76.8535	244.0000
76.8729	241.0000
76.8924	241.0000
76.9119	211.0000
76.9313	250.0000
76.9508	212.0000
76.9702	236.0000
76.9897	228.0000
77.0091	222.0000
77.0286	228.0000
77.0481	235.0000
77.0675	242.0000
77.0870	239.0000
77.1064	213.0000
77.1259	209.0000
77.1453	214.0000
77.1648	213.0000
77.1843	235.0000
77.2037	212.0000
77.2232	229.0000
77.2426	245.0000
77.2621	218.0000
77.2815	208.0000
77.3010	215.0000
77.3204	223.0000
77.3399	229.0000
77.3594	218.0000
77.3788	226.0000
77.3983	209.0000
77.4177	226.0000
77.4372	200.0000
77.4566	241.0000
77.4761	210.0000
77.4956	233.0000
77.5150	219.0000
77.5345	225.0000
77.5539	219.0000
77.5734	237.0000
77.5928	199.0000
77.6123	256.0000
77.6318	229.0000
77.6512	240.0000
77.6707	212.0000
77.6901	214.0000
77.7096	240.0000
77.7290	237.0000
77.7485	217.0000
77.7680	249.0000
77.7874	225.0000
77.8069	220.0000
77.8263	218.0000
77.8458	230.0000
77.8652	218.0000
77.8847	219.0000
77.9042	216.0000
77.9236	228.0000
77.9431	206.0000
77.9625	219.0000
77.9820	244.0000
78.0014	251.0000
78.0209	209.0000
78.0404	217.0000
78.0598	201.0000
78.0793	219.0000
78.0987	227.0000
78.1182	221.0000
78.1376	249.0000
78.1571	253.0000
78.1766	245.0000
78.1960	225.0000
78.2155	233.0000
78.2349	216.0000
78.2544	229.0000
78.2738	247.0000
78.2933	255.0000
78.3128	194.0000
78.3322	230.0000
78.3517	214.0000
78.3711	211.0000
78.3906	220.0000
78.4100	238.0000
78.4295	219.0000
78.4490	218.0000
78.4684	229.0000
78.4879	234.0000
78.5073	255.0000
78.5268	220.0000
78.5462	227.0000
78.5657	210.0000
78.5852	220.0000
78.6046	236.0000
78.6241	208.0000
78.6435	213.0000
78.6630	236.0000
78.6824	214.0000
78.7019	211.0000
78.7214	206.0000
78.7408	222.0000
78.7603	212.0000
78.7797	215.0000
78.7992	220.0000
78.8186	251.0000
78.8381	224.0000
78.8576	218.0000
78.8770	235.0000
78.8965	203.0000
78.9159	215.0000
78.9354	216.0000
78.9548	207.0000
78.9743	216.0000
78.9938	214.0000
79.0132	235.0000
79.0327	248.0000
79.0521	231.0000
79.0716	236.0000
79.0910	211.0000
79.1105	235.0000
79.1300	228.0000
79.1494	237.0000
79.1689	230.0000
79.1883	223.0000
79.2078	205.0000
79.2272	195.0000
79.2467	239.0000
79.2662	232.0000
79.2856	244.0000
79.3051	234.0000
79.3245	201.0000
79.3440	223.0000
79.3634	190.0000
79.3829	214.0000
79.4024	239.0000
79.4218	254.0000
79.4413	228.0000
79.4607	224.0000
79.4802	227.0000
79.4996	220.0000
79.5191	238.0000
79.5386	217.0000
79.5580	236.0000
79.5775	211.0000
79.5969	242.0000
79.6164	213.0000
79.6358	221.0000
79.6553	202.0000
79.6748	176.0000
79.6942	213.0000
79.7137	212.0000
79.7331	222.0000
79.7526	199.0000
79.7720	230.0000
79.7915	235.0000
79.8110	230.0000
79.8304	231.0000
79.8499	201.0000
79.8693	210.0000
79.8888	218.0000
79.9082	235.0000
79.9277	220.0000
79.9472	232.0000
79.9666	248.0000
79.9861	220.0000
80.0055	204.0000
80.0250	225.0000
80.0444	213.0000
80.0639	218.0000
80.0833	221.0000
80.1028	238.0000
80.1223	231.0000
80.1417	244.0000
80.1612	209.0000
80.1806	237.0000
80.2001	225.0000
80.2195	224.0000
80.2390	246.0000
80.2585	218.0000
80.2779	235.0000
80.2974	205.0000
80.3168	233.0000
80.3363	237.0000
80.3557	234.0000
80.3752	233.0000
80.3947	206.0000
80.4141	216.0000
80.4336	231.0000
80.4530	195.0000
80.4725	200.0000
80.4919	215.0000
80.5114	222.0000
80.5309	221.0000
80.5503	244.0000
80.5698	214.0000
80.5892	238.0000
80.6087	210.0000
80.6281	221.0000
80.6476	228.0000
80.6671	237.0000
80.6865	205.0000
80.7060	264.0000
80.7254	210.0000
80.7449	217.0000
80.7643	199.0000
80.7838	217.0000
80.8033	233.0000
80.8227	248.0000
80.8422	218.0000
80.8616	230.0000
80.8811	240.0000
80.9005	233.0000
80.9200	187.0000
80.9395	195.0000
80.9589	239.0000
80.9784	212.0000
80.9978	223.0000
81.0173	237.0000
81.0367	229.0000
81.0562	228.0000
81.0757	227.0000
81.0951	230.0000
81.1146	239.0000
81.1340	215.0000
81.1535	217.0000
81.1729	232.0000
81.1924	242.0000
81.2119	198.0000
81.2313	225.0000
81.2508	238.0000
81.2702	207.0000
81.2897	250.0000
81.3091	212.0000
81.3286	198.0000
81.3481	220.0000
81.3675	236.0000
81.3870	223.0000
81.4064	226.0000
81.4259	207.0000
81.4453	225.0000
81.4648	201.0000
81.4843	212.0000
81.5037	238.0000
81.5232	251.0000
81.5426	251.0000
81.5621	184.0000
81.5815	215.0000
81.6010	231.0000
81.6205	220.0000
81.6399	211.0000
81.6594	228.0000
81.6788	210.0000
81.6983	221.0000
81.7177	219.0000
81.7372	197.0000
81.7567	211.0000
81.7761	219.0000
81.7956	217.0000
81.8150	220.0000
81.8345	231.0000
81.8539	216.0000
81.8734	203.0000
81.8929	239.0000
81.9123	219.0000
81.9318	243.0000
81.9512	236.0000
81.9707	237.0000
81.9901	229.0000
82.0096	202.0000
82.0291	238.0000
82.0485	200.0000
82.0680	232.0000
82.0874	234.0000
82.1069	233.0000
82.1263	244.0000
82.1458	217.0000
82.1653	226.0000
82.1847	264.0000
82.2042	216.0000
82.2236	214.0000
82.2431	230.0000
82.2625	226.0000
82.2820	214.0000
82.3015	217.0000
82.3209	234.0000
82.3404	237.0000
82.3598	232.0000
82.3793	235.0000
82.3987	227.0000
82.4182	250.0000
82.4377	213.0000
82.4571	210.0000
82.4766	202.0000
82.4960	243.0000
82.5155	225.0000
82.5349	220.0000
82.5544	234.0000
82.5739	224.0000
82.5933	230.0000
82.6128	192.0000
82.6322	203.0000
82.6517	244.0000
82.6711	181.0000
82.6906	220.0000
82.7101	235.0000
82.7295	222.0000
82.7490	231.0000
82.7684	241.0000
82.7879	248.0000
82.8073	190.0000
82.8268	245.0000
82.8462	216.0000
82.8657	211.0000
82.8852	214.0000
82.9046	222.0000
82.9241	214.0000
82.9435	245.0000
82.9630	218.0000
82.9824	221.0000
83.0019	235.0000
83.0214	228.0000
83.0408	235.0000
83.0603	224.0000
83.0797	222.0000
83.0992	225.0000
83.1186	238.0000
83.1381	236.0000
83.1576	210.0000
83.1770	229.0000
83.1965	263.0000
83.2159	223.0000
83.2354	225.0000
83.2548	230.0000
83.2743	215.0000
83.2938	242.0000
83.3132	211.0000
83.3327	232.0000
83.3521	215.0000
83.3716	221.0000
83.3910	225.0000
83.4105	241.0000
83.4300	235.0000
83.4494	228.0000
83.4689	198.0000
83.4883	208.0000
83.5078	215.0000
83.5272	223.0000
83.5467	218.0000
83.5662	238.0000
83.5856	204.0000
83.6051	203.0000
83.6245	211.0000
83.6440	215.0000
83.6634	261.0000
83.6829	212.0000
83.7024	228.0000
83.7218	211.0000
83.7413	215.0000
83.7607	231.0000
83.7802	248.0000
83.7996	190.0000
83.8191	231.0000
83.8386	239.0000
83.8580	235.0000
83.8775	255.0000
83.8969	255.0000
83.9164	224.0000
83.9358	218.0000
83.9553	227.0000
83.9748	196.0000
83.9942	225.0000
84.0137	202.0000
84.0331	243.0000
84.0526	229.0000
84.0720	258.0000
84.0915	228.0000
84.1110	218.0000
84.1304	228.0000
84.1499	227.0000
84.1693	245.0000
84.1888	207.0000
84.2082	216.0000
84.2277	227.0000
84.2472	196.0000
84.2666	225.0000
84.2861	219.0000
84.3055	218.0000
84.3250	196.0000
84.3444	228.0000
84.3639	242.0000
84.3834	239.0000
84.4028	214.0000
84.4223	236.0000
84.4417	210.0000
84.4612	208.0000
84.4806	212.0000
84.5001	232.0000
84.5196	256.0000
84.5390	196.0000
84.5585	232.0000
84.5779	212.0000
84.5974	223.0000
84.6168	202.0000
84.6363	206.0000
84.6558	211.0000
84.6752	219.0000
84.6947	184.0000
84.7141	222.0000
84.7336	238.0000
84.7530	228.0000
84.7725	223.0000
84.7920	222.0000
84.8114	236.0000
84.8309	195.0000
84.8503	200.0000
84.8698	248.0000
84.8892	222.0000
84.9087	228.0000
84.9282	203.0000
84.9476	203.0000
84.9671	227.0000
84.9865	217.0000
85.0060	238.0000
85.0254	203.0000
85.0449	218.0000
85.0644	239.0000
85.0838	234.0000
85.1033	225.0000
85.1227	210.0000
85.1422	224.0000
85.1616	223.0000
85.1811	240.0000
85.2006	232.0000
85.2200	242.0000
85.2395	230.0000
85.2589	231.0000
85.2784	232.0000
85.2978	228.0000
85.3173	202.0000
85.3368	229.0000
85.3562	210.0000
85.3757	217.0000
85.3951	225.0000
85.4146	222.0000
85.4340	217.0000
85.4535	232.0000
85.4730	223.0000
85.4924	226.0000
85.5119	225.0000
85.5313	220.0000
85.5508	256.0000
85.5702	204.0000
85.5897	215.0000
85.6091	240.0000
85.6286	211.0000
85.6481	211.0000
85.6675	227.0000
85.6870	254.0000
85.7064	217.0000
85.7259	229.0000
85.7453	249.0000
85.7648	246.0000
85.7843	215.0000
85.8037	229.0000
85.8232	234.0000
85.8426	251.0000
85.8621	251.0000
85.8815	212.0000
85.9010	223.0000
85.9205	206.0000
85.9399	205.0000
85.9594	223.0000
85.9788	250.0000
85.9983	230.0000
86.0177	195.0000
86.0372	227.0000
86.0567	224.0000
86.0761	216.0000
86.0956	224.0000
86.1150	218.0000
86.1345	214.0000
86.1539	226.0000
86.1734	216.0000
86.1929	236.0000
86.2123	213.0000
86.2318	211.0000
86.2512	241.0000
86.2707	219.0000
86.2901	243.0000
86.3096	250.0000
86.3291	234.0000
86.3485	224.0000
86.3680	241.0000
86.3874	196.0000
86.4069	192.0000
86.4263	222.0000
86.4458	221.0000
86.4653	211.0000
86.4847	176.0000
86.5042	207.0000
86.5236	220.0000
86.5431	238.0000
86.5625	208.0000
86.5820	213.0000
86.6015	260.0000
86.6209	233.0000
86.6404	221.0000
86.6598	211.0000
86.6793	226.0000
86.6987	238.0000
86.7182	199.0000
86.7377	234.0000
86.7571	244.0000
86.7766	245.0000
86.7960	196.0000
86.8155	215.0000
86.8349	226.0000
86.8544	230.0000
86.8739	234.0000
86.8933	237.0000
86.9128	226.0000
86.9322	222.0000
86.9517	242.0000
86.9711	230.0000
86.9906	225.0000
87.0101	217.0000
87.0295	195.0000
87.0490	219.0000
87.0684	199.0000
87.0879	237.0000
87.1073	228.0000
87.1268	222.0000
87.1463	244.0000
87.1657	236.0000
87.1852	231.0000
87.2046	225.0000
87.2241	241.0000
87.2435	230.0000
87.2630	227.0000
87.2825	225.0000
87.3019	206.0000
87.3214	217.0000
87.3408	234.0000
87.3603	220.0000
87.3797	204.0000
87.3992	231.0000
87.4187	215.0000
87.4381	213.0000
87.4576	216.0000
87.4770	221.0000
87.4965	204.0000
87.5159	200.0000
87.5354	215.0000
87.5549	218.0000
87.5743	247.0000
87.5938	199.0000
87.6132	225.0000
87.6327	211.0000
87.6521	264.0000
87.6716	203.0000
87.6911	215.0000
87.7105	227.0000
87.7300	216.0000
87.7494	225.0000
87.7689	239.0000
87.7883	246.0000
87.8078	212.0000
87.8273	224.0000
87.8467	234.0000
87.8662	211.0000
87.8856	207.0000
87.9051	228.0000
87.9245	213.0000
87.9440	235.0000
87.9635	213.0000
87.9829	235.0000
88.0024	251.0000
88.0218	215.0000
88.0413	218.0000
88.0607	203.0000
88.0802	259.0000
88.0997	231.0000
88.1191	208.0000
88.1386	235.0000
88.1580	210.0000
88.1775	236.0000
88.1969	264.0000
88.2164	229.0000
88.2359	223.0000
88.2553	222.0000
88.2748	231.0000
88.2942	216.0000
88.3137	203.0000
88.3331	237.0000
88.3526	239.0000
88.3720	229.0000
88.3915	233.0000
88.4110	224.0000
88.4304	240.0000
88.4499	228.0000
88.4693	235.0000
88.4888	232.0000
88.5082	235.0000
88.5277	227.0000
88.5472	208.0000
88.5666	243.0000
88.5861	207.0000
88.6055	218.0000
88.6250	220.0000
88.6444	214.0000
88.6639	232.0000
88.6834	238.0000
88.7028	238.0000
88.7223	240.0000
88.7417	226.0000
88.7612	236.0000
88.7806	235.0000
88.8001	251.0000
88.8196	233.0000
88.8390	251.0000
88.8585	227.0000
88.8779	232.0000
88.8974	258.0000
88.9168	262.0000
88.9363	203.0000
88.9558	233.0000
88.9752	217.0000
88.9947	219.0000
89.0141	209.0000
89.0336	245.0000
89.0530	225.0000
89.0725	244.0000
89.0920	249.0000
89.1114	243.0000
89.1309	239.0000
89.1503	226.0000
89.1698	231.0000
89.1892	237.0000
89.2087	216.0000
89.2282	221.0000
89.2476	226.0000
89.2671	233.0000
89.2865	253.0000
89.3060	247.0000
89.3254	227.0000
89.3449	232.0000
89.3644	246.0000
89.3838	258.0000
89.4033	263.0000
89.4227	226.0000
89.4422	240.0000
89.4616	276.0000
89.4811	243.0000
89.5006	241.0000
89.5200	244.0000
89.5395	250.0000
89.5589	254.0000
89.5784	253.0000
89.5978	241.0000
89.6173	234.0000
89.6368	250.0000
89.6562	260.0000
89.6757	224.0000
89.6951	245.0000
89.7146	261.0000
89.7340	258.0000
89.7535	272.0000
89.7730	242.0000
89.7924	234.0000
89.8119	247.0000
89.8313	240.0000
89.8508	253.0000
89.8702	246.0000
89.8897	240.0000
89.9092	260.0000
89.9286	240.0000
89.9481	273.0000
89.9675	254.0000
89.9870	287.0000
90.0064	250.0000
90.0259	238.0000
90.0454	253.0000
90.0648	261.0000
90.0843	298.0000
90.1037	246.0000
90.1232	275.0000
90.1426	268.0000
90.1621	298.0000
90.1816	303.0000
90.2010	296.0000
90.2205	305.0000
90.2399	305.0000
90.2594	308.0000
90.2788	298.0000
90.2983	289.0000
90.3178	293.0000
90.3372	345.0000
90.3567	302.0000
90.3761	373.0000
90.3956	343.0000
90.4150	329.0000
90.4345	358.0000
90.4540	331.0000
90.4734	387.0000
90.4929	405.0000
90.5123	379.0000
90.5318	414.0000
90.5512	410.0000
90.5707	410.0000
90.5902	432.0000
90.6096	514.0000
90.6291	455.0000
90.6485	539.0000
90.6680	509.0000
90.6874	505.0000
90.7069	604.0000
90.7264	605.0000
90.7458	581.0000
90.7653	587.0000
90.7847	574.0000
90.8042	634.0000
90.8236	575.0000
90.8431	591.0000
90.8626	593.0000
90.8820	558.0000
90.9015	647.0000
90.9209	593.0000
90.9404	562.0000
90.9598	597.0000
90.9793	512.0000
90.9988	521.0000
91.0182	545.0000
91.0377	489.0000
91.0571	576.0000
91.0766	514.0000
91.0960	509.0000
91.1155	474.0000
91.1350	469.0000
91.1544	447.0000
91.1739	421.0000
91.1933	417.0000
91.2128	418.0000
91.2322	384.0000
91.2517	371.0000
91.2711	404.0000
91.2906	384.0000
91.3101	358.0000
91.3295	341.0000
91.3490	338.0000
91.3684	320.0000
91.3879	304.0000
91.4073	284.0000
91.4268	303.0000
91.4463	303.0000
91.4657	302.0000
91.4852	319.0000
91.5046	276.0000
91.5241	279.0000
91.5435	269.0000
91.5630	282.0000
91.5825	280.0000
91.6019	257.0000
91.6214	282.0000
91.6408	244.0000
91.6603	245.0000
91.6797	291.0000
91.6992	278.0000
91.7187	275.0000
91.7381	247.0000
91.7576	253.0000
91.7770	255.0000
91.7965	243.0000
91.8159	244.0000
91.8354	273.0000
91.8549	262.0000
91.8743	236.0000
91.8938	264.0000
91.9132	263.0000
91.9327	207.0000
91.9521	242.0000
91.9716	292.0000
91.9911	248.0000
92.0105	248.0000
92.0300	268.0000
92.0494	251.0000
92.0689	252.0000
92.0883	236.0000
92.1078	227.0000
92.1273	229.0000
92.1467	263.0000
92.1662	217.0000
92.1856	246.0000
92.2051	220.0000
92.2245	224.0000
92.2440	243.0000
92.2635	228.0000
92.2829	246.0000
92.3024	250.0000
92.3218	239.0000
92.3413	257.0000
92.3607	239.0000
92.3802	227.0000
92.3997	241.0000
92.4191	231.0000
92.4386	227.0000
92.4580	230.0000
92.4775	249.0000
92.4969	244.0000
92.5164	238.0000
92.5359	242.0000
92.5553	197.0000
92.5748	246.0000
92.5942	248.0000
92.6137	226.0000
92.6331	254.0000
92.6526	206.0000
92.6721	214.0000
92.6915	227.0000
92.7110	239.0000
92.7304	234.0000
92.7499	236.0000
92.7693	225.0000
92.7888	242.0000
92.8083	231.0000
92.8277	233.0000
92.8472	240.0000
92.8666	234.0000
92.8861	225.0000
92.9055	223.0000
92.9250	231.0000
92.9445	231.0000
92.9639	224.0000
92.9834	245.0000
93.0028	253.0000
93.0223	243.0000
93.0417	248.0000
93.0612	263.0000
93.0807	244.0000
93.1001	222.0000
93.1196	230.0000
93.1390	209.0000
93.1585	248.0000
93.1779	246.0000
93.1974	246.0000
93.2169	223.0000
93.2363	230.0000
93.2558	245.0000
93.2752	243.0000
93.2947	210.0000
93.3141	210.0000
93.3336	226.0000
93.3531	232.0000
93.3725	251.0000
93.3920	232.0000
93.4114	233.0000
93.4309	226.0000
93.4503	234.0000
93.4698	240.0000
93.4893	229.0000
93.5087	240.0000
93.5282	262.0000
93.5476	246.0000
93.5671	242.0000
93.5865	235.0000
93.6060	217.0000
93.6255	243.0000
93.6449	250.0000
93.6644	248.0000
93.6838	270.0000
93.7033	240.0000
93.7227	236.0000
93.7422	238.0000
93.7617	223.0000
93.7811	228.0000
93.8006	248.0000
93.8200	241.0000
93.8395	243.0000
93.8589	240.0000
93.8784	216.0000
93.8979	236.0000
93.9173	242.0000
93.9368	238.0000
93.9562	225.0000
93.9757	234.0000
93.9951	239.0000
94.0146	223.0000
94.0340	238.0000
94.0535	216.0000
94.0730	228.0000
94.0924	265.0000
94.1119	243.0000
94.1313	237.0000
94.1508	255.0000
94.1702	217.0000
94.1897	218.0000
94.2092	248.0000
94.2286	254.0000
94.2481	270.0000
94.2675	257.0000
94.2870	253.0000
94.3064	232.0000
94.3259	244.0000
94.3454	237.0000
94.3648	230.0000
94.3843	233.0000
94.4037	239.0000
94.4232	231.0000
94.4426	228.0000
94.4621	249.0000
94.4816	229.0000
94.5010	262.0000
94.5205	265.0000
94.5399	242.0000
94.5594	235.0000
94.5788	251.0000
94.5983	230.0000
94.6178	222.0000
94.6372	241.0000
94.6567	226.0000
94.6761	248.0000
94.6956	241.0000
94.7150	225.0000
94.7345	279.0000
94.7540	255.0000
94.7734	249.0000
94.7929	222.0000
94.8123	214.0000
94.8318	226.0000
94.8512	238.0000
94.8707	223.0000
94.8902	259.0000
94.9096	217.0000
94.9291	223.0000
94.9485	249.0000
94.9680	248.0000
94.9874	269.0000
95.0069	238.0000
95.0264	234.0000
95.0458	251.0000
95.0653	259.0000
95.0847	259.0000
95.1042	241.0000
95.1236	232.0000
95.1431	230.0000
95.1626	223.0000
95.1820	251.0000
95.2015	236.0000
95.2209	258.0000
95.2404	230.0000
95.2598	263.0000
95.2793	240.0000
95.2988	209.0000
95.3182	239.0000
95.3377	254.0000
95.3571	227.0000
95.3766	262.0000
95.3960	243.0000
95.4155	276.0000
95.4350	251.0000
95.4544	261.0000
95.4739	238.0000
95.4933	235.0000
95.5128	253.0000
95.5322	243.0000
95.5517	242.0000
95.5712	240.0000
95.5906	243.0000
95.6101	250.0000
95.6295	237.0000
95.6490	237.0000
95.6684	244.0000
95.6879	241.0000
95.7074	251.0000
95.7268	262.0000
95.7463	241.0000
95.7657	238.0000
95.7852	230.0000
95.8046	228.0000
95.8241	241.0000
95.8436	281.0000
95.8630	259.0000
95.8825	249.0000
95.9019	247.0000
95.9214	256.0000
95.9408	275.0000
95.9603	251.0000
95.9798	277.0000
95.9992	291.0000
96.0187	274.0000
96.0381	273.0000
96.0576	298.0000
96.0770	269.0000
96.0965	274.0000
96.1160	296.0000
96.1354	303.0000
96.1549	299.0000
96.1743	292.0000
96.1938	315.0000
96.2132	318.0000
96.2327	321.0000
96.2522	309.0000
96.2716	295.0000
96.2911	286.0000
96.3105	276.0000
96.3300	285.0000
96.3494	293.0000
96.3689	257.0000
96.3884	244.0000
96.4078	233.0000
96.4273	269.0000
96.4467	265.0000
96.4662	285.0000
96.4856	306.0000
96.5051	245.0000
96.5246	318.0000
96.5440	262.0000
96.5635	275.0000
96.5829	275.0000
96.6024	257.0000
96.6218	265.0000
96.6413	264.0000
96.6608	263.0000
96.6802	232.0000
96.6997	262.0000
96.7191	274.0000
96.7386	253.0000
96.7580	278.0000
96.7775	254.0000
96.7969	279.0000
96.8164	248.0000
96.8359	248.0000
96.8553	251.0000
96.8748	252.0000
96.8942	237.0000
96.9137	238.0000
96.9331	250.0000
96.9526	221.0000
96.9721	234.0000
96.9915	262.0000
97.0110	246.0000
97.0304	254.0000
97.0499	245.0000
97.0693	227.0000
97.0888	260.0000
97.1083	256.0000
97.1277	252.0000
97.1472	242.0000
97.1666	213.0000
97.1861	231.0000
97.2055	238.0000
97.2250	219.0000
97.2445	222.0000
97.2639	265.0000
97.2834	210.0000
97.3028	214.0000
97.3223	233.0000
97.3417	266.0000
97.3612	200.0000
97.3807	243.0000
97.4001	233.0000
97.4196	230.0000
97.4390	250.0000
97.4585	236.0000
97.4779	234.0000
97.4974	251.0000
97.5169	251.0000
97.5363	212.0000
97.5558	223.0000
97.5752	219.0000
97.5947	245.0000
97.6141	239.0000
97.6336	222.0000
97.6531	226.0000
97.6725	234.0000
97.6920	242.0000
97.7114	243.0000
97.7309	265.0000
97.7503	245.0000
97.7698	246.0000
97.7893	240.0000
97.8087	227.0000
97.8282	239.0000
97.8476	232.0000
97.8671	232.0000
97.8865	226.0000
97.9060	232.0000
97.9255	250.0000
97.9449	219.0000
97.9644	221.0000
97.9838	249.0000
98.0033	242.0000
98.0227	250.0000
98.0422	229.0000
98.0617	251.0000
98.0811	231.0000
98.1006	225.0000
98.1200	227.0000
98.1395	215.0000
98.1589	221.0000
98.1784	232.0000
98.1979	220.0000
98.2173	209.0000
98.2368	256.0000
98.2562	261.0000
98.2757	218.0000
98.2951	256.0000
98.3146	213.0000
98.3341	229.0000
98.3535	298.0000
98.3730	248.0000
98.3924	228.0000
98.4119	234.0000
98.4313	233.0000
98.4508	239.0000
98.4703	241.0000
98.4897	263.0000
98.5092	239.0000
98.5286	264.0000
98.5481	243.0000
98.5675	221.0000
98.5870	230.0000
98.6065	223.0000
98.6259	219.0000
98.6454	211.0000
98.6648	245.0000
98.6843	258.0000
98.7037	214.0000
98.7232	239.0000
98.7427	242.0000
98.7621	254.0000
98.7816	217.0000
98.8010	239.0000
98.8205	241.0000
98.8399	247.0000
98.8594	245.0000
98.8789	227.0000
98.8983	257.0000
98.9178	237.0000
98.9372	223.0000
98.9567	235.0000
98.9761	213.0000
98.9956	231.0000
99.0151	244.0000
99.0345	241.0000
99.0540	219.0000
99.0734	249.0000
99.0929	247.0000
99.1123	226.0000
99.1318	210.0000
99.1513	263.0000
99.1707	248.0000
99.1902	222.0000
99.2096	219.0000
99.2291	242.0000
99.2485	248.0000
99.2680	239.0000
99.2875	236.0000
99.3069	243.0000
99.3264	201.0000
99.3458	224.0000
99.3653	252.0000
99.3847	233.0000
99.4042	229.0000
99.4237	230.0000
99.4431	226.0000
99.4626	209.0000
99.4820	251.0000
99.5015	245.0000
99.5209	258.0000
99.5404	240.0000
99.5598	216.0000
99.5793	238.0000
99.5988	242.0000
99.6182	233.0000
99.6377	243.0000
99.6571	256.0000
99.6766	247.0000
99.6960	231.0000
99.7155	231.0000
99.7350	232.0000
99.7544	223.0000
99.7739	253.0000
99.7933	229.0000
99.8128	251.0000
99.8322	271.0000
99.8517	220.0000
99.8712	204.0000
99.8906	222.0000
99.9101	236.0000
99.9295	238.0000
99.9490	223.0000
99.9684	228.0000
99.9879	257.0000
100.0074	246.0000
