30.0009	197.0000
30.0204	212.0000
30.0398	222.0000
30.0593	199.0000
30.0787	200.0000
30.0982	189.0000
30.1177	240.0000
30.1371	210.0000
30.1566	184.0000
30.1760	191.0000
30.1955	224.0000
30.2149	230.0000
30.2344	166.0000
30.2539	209.0000
30.2733	195.0000
30.2928	187.0000
30.3122	221.0000
30.3317	224.0000
30.3511	190.0000
30.3706	212.0000
30.3901	231.0000
30.4095	220.0000
30.4290	217.0000
30.4484	193.0000
30.4679	214.0000
30.4873	218.0000
30.5068	201.0000
30.5263	216.0000
30.5457	185.0000
30.5652	206.0000
30.5846	208.0000
30.6041	213.0000
30.6235	205.0000
30.6430	232.0000
30.6625	190.0000
30.6819	198.0000
30.7014	184.0000
30.7208	193.0000
30.7403	205.0000
30.7597	199.0000
30.7792	186.0000
30.7987	190.0000
30.8181	225.0000
30.8376	185.0000
30.8570	218.0000
30.8765	214.0000
30.8959	215.0000
30.9154	196.0000
30.9349	198.0000
30.9543	200.0000
30.9738	232.0000
30.9932	189.0000
31.0127	157.0000
31.0321	199.0000
31.0516	184.0000
31.0711	205.0000
31.0905	220.0000
31.1100	198.0000
31.1294	202.0000
31.1489	214.0000
31.1683	189.0000
31.1878	200.0000
31.2073	181.0000
31.2267	204.0000
31.2462	226.0000
31.2656	200.0000
31.2851	171.0000
31.3045	226.0000
31.3240	226.0000
31.3435	181.0000
31.3629	185.0000
31.3824	212.0000
31.4018	185.0000
31.4213	187.0000
31.4407	239.0000
31.4602	200.0000
31.4797	192.0000
31.4991	180.0000
31.5186	220.0000
31.5380	162.0000
31.5575	197.0000
31.5769	204.0000
31.5964	185.0000
31.6159	197.0000
31.6353	219.0000
31.6548	182.0000
31.6742	209.0000
31.6937	189.0000
31.7131	220.0000
31.7326	195.0000
31.7521	209.0000
31.7715	187.0000
31.7910	205.0000
31.8104	180.0000
31.8299	209.0000
31.8493	198.0000
31.8688	220.0000
31.8883	167.0000
31.9077	204.0000
31.9272	190.0000
31.9466	234.0000
31.9661	186.0000
31.9855	234.0000
32.0050	217.0000
32.0245	179.0000
32.0439	188.0000
32.0634	192.0000
32.0828	197.0000
32.1023	197.0000
32.1217	200.0000
32.1412	198.0000
32.1607	183.0000
32.1801	195.0000
32.1996	212.0000
32.2190	209.0000
32.2385	190.0000
32.2579	193.0000
32.2774	203.0000
32.2969	201.0000
32.3163	212.0000
32.3358	185.0000
32.3552	193.0000
32.3747	191.0000
32.3941	205.0000
32.4136	208.0000
32.4331	214.0000
32.4525	189.0000
32.4720	183.0000
32.4914	164.0000
32.5109	195.0000
32.5303	210.0000
32.5498	185.0000
32.5693	195.0000
32.5887	184.0000
32.6082	218.0000
32.6276	203.0000
32.6471	203.0000
32.6665	187.0000
32.6860	203.0000
32.7055	206.0000
32.7249	195.0000
32.7444	218.0000
32.7638	203.0000
32.7833	204.0000
32.8027	194.0000
32.8222	205.0000
32.8416	179.0000
32.8611	173.0000
32.8806	193.0000
32.9000	179.0000
32.9195	200.0000
32.9389	194.0000
32.9584	208.0000
32.9778	200.0000
32.9973	175.0000
33.0168	198.0000
33.0362	162.0000
33.0557	205.0000
33.0751	192.0000
33.0946	199.0000
33.1140	189.0000
33.1335	193.0000
33.1530	199.0000
33.1724	185.0000
33.1919	205.0000
33.2113	196.0000
33.2308	192.0000
33.2502	201.0000
33.2697	215.0000
33.2892	189.0000
33.3086	178.0000
33.3281	188.0000
33.3475	189.0000
33.3670	190.0000
33.3864	174.0000
33.4059	191.0000
33.4254	189.0000
33.4448	198.0000
33.4643	187.0000
33.4837	189.0000
33.5032	203.0000
33.5226	201.0000
33.5421	202.0000
33.5616	200.0000
33.5810	195.0000
33.6005	187.0000
33.6199	191.0000
33.6394	193.0000
33.6588	207.0000
33.6783	190.0000
33.6978	205.0000
33.7172	200.0000
33.7367	177.0000
33.7561	188.0000
33.7756	190.0000
33.7950	181.0000
33.8145	165.0000
33.8340	229.0000
33.8534	198.0000
33.8729	178.0000
33.8923	178.0000
33.9118	203.0000
33.9312	195.0000
33.9507	195.0000
33.9702	205.0000
33.9896	202.0000
34.0091	174.0000
34.0285	206.0000
34.0480	158.0000
34.0674	202.0000
34.0869	209.0000
34.1064	214.0000
34.1258	218.0000
34.1453	226.0000
34.1647	214.0000
34.1842	206.0000
34.2036	197.0000
34.2231	210.0000
34.2426	221.0000
34.2620	203.0000
34.2815	207.0000
34.3009	203.0000
34.3204	178.0000
34.3398	213.0000
34.3593	197.0000
34.3788	194.0000
34.3982	214.0000
34.4177	207.0000
34.4371	193.0000
34.4566	190.0000
34.4760	184.0000
34.4955	202.0000
34.5150	226.0000
34.5344	185.0000
34.5539	200.0000
34.5733	223.0000
34.5928	196.0000
34.6122	186.0000
34.6317	206.0000
34.6512	225.0000
34.6706	212.0000
34.6901	222.0000
34.7095	213.0000
34.7290	221.0000
34.7484	217.0000
34.7679	198.0000
34.7874	218.0000
34.8068	219.0000
34.8263	196.0000
34.8457	210.0000
34.8652	197.0000
34.8846	209.0000
34.9041	188.0000
34.9236	190.0000
34.9430	193.0000
34.9625	207.0000
34.9819	207.0000
35.0014	204.0000
35.0208	195.0000
35.0403	215.0000
35.0598	213.0000
35.0792	211.0000
35.0987	216.0000
35.1181	200.0000
35.1376	223.0000
35.1570	169.0000
35.1765	190.0000
35.1960	243.0000
35.2154	209.0000
35.2349	221.0000
35.2543	225.0000
35.2738	196.0000
35.2932	222.0000
35.3127	213.0000
35.3322	233.0000
35.3516	198.0000
35.3711	235.0000
35.3905	227.0000
35.4100	209.0000
35.4294	221.0000
35.4489	229.0000
35.4684	219.0000
35.4878	201.0000
35.5073	228.0000
35.5267	239.0000
35.5462	201.0000
35.5656	238.0000
35.5851	225.0000
35.6045	223.0000
35.6240	217.0000
35.6435	196.0000
35.6629	207.0000
35.6824	192.0000
35.7018	206.0000
35.7213	206.0000
35.7407	205.0000
35.7602	221.0000
35.7797	210.0000
35.7991	217.0000
35.8186	220.0000
35.8380	230.0000
35.8575	214.0000
35.8769	195.0000
35.8964	235.0000
35.9159	219.0000
35.9353	209.0000
35.9548	229.0000
35.9742	215.0000
35.9937	196.0000
36.0131	195.0000
36.0326	216.0000
36.0521	185.0000
36.0715	218.0000
36.0910	194.0000
36.1104	200.0000
36.1299	232.0000
36.1493	209.0000
36.1688	215.0000
36.1883	196.0000
36.2077	196.0000
36.2272	188.0000
36.2466	191.0000
36.2661	215.0000
36.2855	204.0000
36.3050	210.0000
36.3245	190.0000
36.3439	189.0000
36.3634	220.0000
36.3828	199.0000
36.4023	235.0000
36.4217	214.0000
36.4412	206.0000
36.4607	191.0000
36.4801	176.0000
36.4996	187.0000
36.5190	208.0000
36.5385	189.0000
36.5579	210.0000
36.5774	212.0000
36.5969	219.0000
36.6163	209.0000
36.6358	193.0000
36.6552	246.0000
36.6747	210.0000
36.6941	191.0000
36.7136	200.0000
36.7331	206.0000
36.7525	201.0000
36.7720	200.0000
36.7914	217.0000
36.8109	213.0000
36.8303	193.0000
36.8498	197.0000
36.8693	205.0000
36.8887	206.0000
36.9082	194.0000
36.9276	211.0000
36.9471	223.0000
36.9665	199.0000
36.9860	213.0000
37.0055	238.0000
37.0249	175.0000
37.0444	217.0000
37.0638	236.0000
37.0833	208.0000
37.1027	170.0000
37.1222	198.0000
37.1417	220.0000
37.1611	207.0000
37.1806	199.0000
37.2000	201.0000
37.2195	208.0000
37.2389	241.0000
37.2584	197.0000
37.2779	174.0000
37.2973	207.0000
37.3168	213.0000
37.3362	236.0000
37.3557	207.0000
37.3751	205.0000
37.3946	201.0000
37.4141	192.0000
37.4335	218.0000
37.4530	185.0000
37.4724	234.0000
37.4919	198.0000
37.5113	231.0000
37.5308	186.0000
37.5503	215.0000
37.5697	216.0000
37.5892	213.0000
37.6086	233.0000
37.6281	195.0000
37.6475	187.0000
37.6670	231.0000
37.6865	225.0000
37.7059	226.0000
37.7254	205.0000
37.7448	229.0000
37.7643	197.0000
37.7837	240.0000
37.8032	223.0000
37.8227	241.0000
37.8421	206.0000
37.8616	203.0000
37.8810	214.0000
37.9005	215.0000
37.9199	224.0000
37.9394	219.0000
37.9589	197.0000
37.9783	202.0000
37.9978	197.0000
38.0172	195.0000
38.0367	207.0000
38.0561	229.0000
38.0756	201.0000
38.0951	195.0000
38.1145	209.0000
38.1340	214.0000
38.1534	210.0000
38.1729	232.0000
38.1923	176.0000
38.2118	209.0000
38.2313	222.0000
38.2507	204.0000
38.2702	219.0000
38.2896	236.0000
38.3091	221.0000
38.3285	212.0000
38.3480	183.0000
38.3675	221.0000
38.3869	213.0000
38.4064	227.0000
38.4258	207.0000
38.4453	222.0000
38.4647	219.0000
38.4842	228.0000
38.5036	181.0000
38.5231	216.0000
38.5426	196.0000
38.5620	232.0000
38.5815	209.0000
38.6009	212.0000
38.6204	236.0000
38.6398	216.0000
38.6593	181.0000
38.6788	207.0000
38.6982	238.0000
38.7177	231.0000
38.7371	265.0000
38.7566	268.0000
38.7760	238.0000
38.7955	245.0000
38.8150	256.0000
38.8344	271.0000
38.8539	236.0000
38.8733	252.0000
38.8928	241.0000
38.9122	238.0000
38.9317	228.0000
38.9512	273.0000
38.9706	272.0000
38.9901	226.0000
39.0095	276.0000
39.0290	246.0000
39.0484	241.0000
39.0679	246.0000
39.0874	271.0000
39.1068	257.0000
39.1263	243.0000
39.1457	229.0000
39.1652	201.0000
39.1846	215.0000
39.2041	206.0000
39.2236	209.0000
39.2430	209.0000
39.2625	216.0000
39.2819	227.0000
39.3014	215.0000
39.3208	202.0000
39.3403	236.0000
39.3598	183.0000
39.3792	191.0000
39.3987	214.0000
39.4181	239.0000
39.4376	214.0000
39.4570	236.0000
39.4765	255.0000
39.4960	222.0000
39.5154	202.0000
39.5349	202.0000
39.5543	208.0000
39.5738	203.0000
39.5932	216.0000
39.6127	211.0000
39.6322	213.0000
39.6516	192.0000
39.6711	204.0000
39.6905	209.0000
39.7100	221.0000
39.7294	247.0000
39.7489	235.0000
39.7684	211.0000
39.7878	230.0000
39.8073	200.0000
39.8267	239.0000
39.8462	184.0000
39.8656	222.0000
39.8851	208.0000
39.9046	217.0000
39.9240	206.0000
39.9435	218.0000
39.9629	199.0000
39.9824	210.0000
40.0018	219.0000
40.0213	227.0000
40.0408	215.0000
40.0602	198.0000
40.0797	206.0000
40.0991	217.0000
40.1186	201.0000
40.1380	211.0000
40.1575	212.0000
40.1770	193.0000
40.1964	209.0000
40.2159	216.0000
40.2353	215.0000
40.2548	235.0000
40.2742	230.0000
40.2937	214.0000
40.3132	205.0000
40.3326	225.0000
40.3521	223.0000
40.3715	196.0000
40.3910	243.0000
40.4104	216.0000
40.4299	206.0000
40.4494	212.0000
40.4688	234.0000
40.4883	216.0000
40.5077	220.0000
40.5272	230.0000
40.5466	214.0000
40.5661	235.0000
40.5856	200.0000
40.6050	217.0000
40.6245	202.0000
40.6439	226.0000
40.6634	222.0000
40.6828	226.0000
40.7023	240.0000
40.7218	221.0000
40.7412	238.0000
40.7607	207.0000
40.7801	208.0000
40.7996	242.0000
40.8190	222.0000
40.8385	203.0000
40.8580	195.0000
40.8774	210.0000
40.8969	204.0000
40.9163	203.0000
40.9358	224.0000
40.9552	236.0000
40.9747	262.0000
40.9942	210.0000
41.0136	213.0000
41.0331	230.0000
41.0525	219.0000
41.0720	214.0000
41.0914	228.0000
41.1109	220.0000
41.1304	225.0000
41.1498	210.0000
41.1693	234.0000
41.1887	218.0000
41.2082	181.0000
41.2276	237.0000
41.2471	200.0000
41.2665	220.0000
41.2860	221.0000
41.3055	247.0000
41.3249	224.0000
41.3444	200.0000
41.3638	215.0000
41.3833	219.0000
41.4027	222.0000
41.4222	202.0000
41.4417	213.0000
41.4611	216.0000
41.4806	224.0000
41.5000	200.0000
41.5195	213.0000
41.5389	187.0000
41.5584	218.0000
41.5779	227.0000
41.5973	221.0000
41.6168	188.0000
41.6362	225.0000
41.6557	242.0000
41.6751	220.0000
41.6946	239.0000
41.7141	235.0000
41.7335	223.0000
41.7530	242.0000
41.7724	227.0000
41.7919	231.0000
41.8113	213.0000
41.8308	228.0000
41.8503	217.0000
41.8697	252.0000
41.8892	220.0000
41.9086	225.0000
41.9281	218.0000
41.9475	231.0000
41.9670	255.0000
41.9865	252.0000
42.0059	201.0000
42.0254	193.0000
42.0448	215.0000
42.0643	233.0000
42.0837	232.0000
42.1032	226.0000
42.1227	244.0000
42.1421	211.0000
42.1616	221.0000
42.1810	248.0000
42.2005	210.0000
42.2199	232.0000
42.2394	236.0000
42.2589	226.0000
42.2783	243.0000
42.2978	206.0000
42.3172	235.0000
42.3367	221.0000
42.3561	210.0000
42.3756	236.0000
42.3951	242.0000
42.4145	255.0000
42.4340	229.0000
42.4534	207.0000
42.4729	233.0000
42.4923	224.0000
42.5118	249.0000
42.5313	254.0000
42.5507	238.0000
42.5702	275.0000
42.5896	235.0000
42.6091	299.0000
42.6285	266.0000
42.6480	271.0000
42.6675	249.0000
42.6869	281.0000
42.7064	287.0000
42.7258	269.0000
42.7453	270.0000
42.7647	277.0000
42.7842	270.0000
42.8037	282.0000
42.8231	252.0000
42.8426	259.0000
42.8620	289.0000
42.8815	217.0000
42.9009	249.0000
42.9204	270.0000
42.9399	280.0000
42.9593	247.0000
42.9788	252.0000
42.9982	255.0000
43.0177	263.0000
43.0371	255.0000
43.0566	245.0000
43.0761	271.0000
43.0955	257.0000
43.1150	248.0000
43.1344	218.0000
43.1539	243.0000
43.1733	281.0000
43.1928	256.0000
43.2123	272.0000
43.2317	263.0000
43.2512	272.0000
43.2706	262.0000
43.2901	292.0000
43.3095	279.0000
43.3290	263.0000
43.3485	267.0000
43.3679	301.0000
43.3874	306.0000
43.4068	286.0000
43.4263	279.0000
43.4457	315.0000
43.4652	297.0000
43.4847	342.0000
43.5041	328.0000
43.5236	319.0000
43.5430	351.0000
43.5625	378.0000
43.5819	395.0000
43.6014	394.0000
43.6209	447.0000
43.6403	496.0000
43.6598	492.0000
43.6792	505.0000
43.6987	562.0000
43.7181	591.0000
43.7376	627.0000
43.7571	631.0000
43.7765	729.0000
43.7960	794.0000
43.8154	833.0000
43.8349	912.0000
43.8543	996.0000
43.8738	1042.0000
43.8933	1010.0000
43.9127	1045.0000
43.9322	1070.0000
43.9516	1091.0000
43.9711	1014.0000
43.9905	1046.0000
44.0100	898.0000
44.0295	868.0000
44.0489	841.0000
44.0684	768.0000
44.0878	723.0000
44.1073	673.0000
44.1267	603.0000
44.1462	587.0000
44.1656	523.0000
44.1851	529.0000
44.2046	465.0000
44.2240	469.0000
44.2435	431.0000
44.2629	420.0000
44.2824	372.0000
44.3018	371.0000
44.3213	368.0000
44.3408	361.0000
44.3602	315.0000
44.3797	311.0000
44.3991	331.0000
44.4186	315.0000
44.4380	326.0000
44.4575	286.0000
44.4770	333.0000
44.4964	258.0000
44.5159	274.0000
44.5353	283.0000
44.5548	273.0000
44.5742	287.0000
44.5937	273.0000
44.6132	256.0000
44.6326	268.0000
44.6521	268.0000
44.6715	267.0000
44.6910	238.0000
44.7104	271.0000
44.7299	286.0000
44.7494	246.0000
44.7688	251.0000
44.7883	249.0000
44.8077	235.0000
44.8272	264.0000
44.8466	233.0000
44.8661	267.0000
44.8856	250.0000
44.9050	244.0000
44.9245	245.0000
44.9439	219.0000
44.9634	273.0000
44.9828	239.0000
45.0023	235.0000
45.0218	241.0000
45.0412	255.0000
45.0607	229.0000
45.0801	228.0000
45.0996	213.0000
45.1190	233.0000
45.1385	240.0000
45.1580	250.0000
45.1774	217.0000
45.1969	243.0000
45.2163	256.0000
45.2358	243.0000
45.2552	218.0000
45.2747	242.0000
45.2942	224.0000
45.3136	249.0000
45.3331	216.0000
45.3525	219.0000
45.3720	222.0000
45.3914	246.0000
45.4109	218.0000
45.4304	235.0000
45.4498	253.0000
45.4693	239.0000
45.4887	247.0000
45.5082	199.0000
45.5276	228.0000
45.5471	228.0000
45.5666	225.0000
45.5860	207.0000
45.6055	228.0000
45.6249	228.0000
45.6444	208.0000
45.6638	235.0000
45.6833	215.0000
45.7028	219.0000
45.7222	258.0000
45.7417	219.0000
45.7611	226.0000
45.7806	231.0000
45.8000	217.0000
45.8195	244.0000
45.8390	206.0000
45.8584	246.0000
45.8779	228.0000
45.8973	259.0000
45.9168	238.0000
45.9362	230.0000
45.9557	208.0000
45.9752	227.0000
45.9946	227.0000
46.0141	247.0000
46.0335	235.0000
46.0530	239.0000
46.0724	226.0000
46.0919	227.0000
46.1114	238.0000
46.1308	242.0000
46.1503	237.0000
46.1697	229.0000
46.1892	211.0000
46.2086	203.0000
46.2281	215.0000
46.2476	230.0000
46.2670	216.0000
46.2865	230.0000
46.3059	228.0000
46.3254	215.0000
46.3448	232.0000
46.3643	225.0000
46.3838	260.0000
46.4032	205.0000
46.4227	209.0000
46.4421	273.0000
46.4616	234.0000
46.4810	221.0000
46.5005	238.0000
46.5200	251.0000
46.5394	218.0000
46.5589	209.0000
46.5783	257.0000
46.5978	242.0000
46.6172	237.0000
46.6367	227.0000
46.6562	247.0000
46.6756	251.0000
46.6951	257.0000
46.7145	265.0000
46.7340	258.0000
46.7534	254.0000
46.7729	231.0000
46.7924	241.0000
46.8118	251.0000
46.8313	268.0000
46.8507	271.0000
46.8702	263.0000
46.8896	275.0000
46.9091	238.0000
46.9285	258.0000
46.9480	277.0000
46.9675	287.0000
46.9869	256.0000
47.0064	283.0000
47.0258	302.0000
47.0453	275.0000
47.0647	252.0000
47.0842	294.0000
47.1037	299.0000
47.1231	297.0000
47.1426	288.0000
47.1620	278.0000
47.1815	290.0000
47.2009	262.0000
47.2204	264.0000
47.2399	256.0000
47.2593	278.0000
47.2788	241.0000
47.2982	234.0000
47.3177	220.0000
47.3371	224.0000
47.3566	241.0000
47.3761	210.0000
47.3955	235.0000
47.4150	228.0000
47.4344	216.0000
47.4539	262.0000
47.4733	228.0000
47.4928	247.0000
47.5123	246.0000
47.5317	244.0000
47.5512	249.0000
47.5706	209.0000
47.5901	215.0000
47.6095	202.0000
47.6290	233.0000
47.6485	236.0000
47.6679	215.0000
47.6874	240.0000
47.7068	243.0000
47.7263	228.0000
47.7457	239.0000
47.7652	244.0000
47.7847	221.0000
47.8041	243.0000
47.8236	245.0000
47.8430	198.0000
47.8625	249.0000
47.8819	244.0000
47.9014	251.0000
47.9209	245.0000
47.9403	269.0000
47.9598	249.0000
47.9792	271.0000
47.9987	280.0000
48.0181	280.0000
48.0376	302.0000
48.0571	265.0000
48.0765	264.0000
48.0960	277.0000
48.1154	277.0000
48.1349	299.0000
48.1543	274.0000
48.1738	289.0000
48.1933	275.0000
48.2127	287.0000
48.2322	236.0000
48.2516	250.0000
48.2711	242.0000
48.2905	237.0000
48.3100	253.0000
48.3295	261.0000
48.3489	199.0000
48.3684	242.0000
48.3878	210.0000
48.4073	229.0000
48.4267	248.0000
48.4462	213.0000
48.4657	223.0000
48.4851	245.0000
48.5046	214.0000
48.5240	225.0000
48.5435	244.0000
48.5629	220.0000
48.5824	226.0000
48.6019	202.0000
48.6213	239.0000
48.6408	219.0000
48.6602	238.0000
48.6797	263.0000
48.6991	202.0000
48.7186	242.0000
48.7381	223.0000
48.7575	225.0000
48.7770	241.0000
48.7964	208.0000
48.8159	201.0000
48.8353	214.0000
48.8548	232.0000
48.8743	258.0000
48.8937	221.0000
48.9132	229.0000
48.9326	235.0000
48.9521	208.0000
48.9715	220.0000
48.9910	259.0000
49.0105	220.0000
49.0299	224.0000
49.0494	231.0000
49.0688	214.0000
49.0883	241.0000
49.1077	215.0000
49.1272	232.0000
49.1467	218.0000
49.1661	234.0000
49.1856	214.0000
49.2050	212.0000
49.2245	260.0000
49.2439	239.0000
49.2634	219.0000
49.2829	215.0000
49.3023	224.0000
49.3218	244.0000
49.3412	205.0000
49.3607	243.0000
49.3801	211.0000
49.3996	240.0000
49.4191	220.0000
49.4385	238.0000
49.4580	253.0000
49.4774	231.0000
49.4969	219.0000
49.5163	231.0000
49.5358	267.0000
49.5553	250.0000
49.5747	251.0000
49.5942	226.0000
49.6136	238.0000
49.6331	222.0000
49.6525	227.0000
49.6720	219.0000
49.6914	225.0000
49.7109	246.0000
49.7304	230.0000
49.7498	253.0000
49.7693	237.0000
49.7887	246.0000
49.8082	224.0000
49.8276	245.0000
49.8471	242.0000
49.8666	244.0000
49.8860	237.0000
49.9055	247.0000
49.9249	253.0000
49.9444	244.0000
49.9638	272.0000
49.9833	210.0000
50.0028	235.0000
50.0222	248.0000
50.0417	233.0000
50.0611	245.0000
50.0806	273.0000
50.1000	252.0000
50.1195	263.0000
50.1390	227.0000
50.1584	262.0000
50.1779	242.0000
50.1973	235.0000
50.2168	246.0000
50.2362	266.0000
50.2557	260.0000
50.2752	280.0000
50.2946	247.0000
50.3141	256.0000
50.3335	261.0000
50.3530	245.0000
50.3724	256.0000
50.3919	291.0000
50.4114	286.0000
50.4308	263.0000
50.4503	275.0000
50.4697	306.0000
50.4892	298.0000
50.5086	285.0000
50.5281	300.0000
50.5476	288.0000
50.5670	306.0000
50.5865	340.0000
50.6059	304.0000
50.6254	324.0000
50.6448	353.0000
50.6643	379.0000
50.6838	395.0000
50.7032	370.0000
50.7227	387.0000
50.7421	399.0000
50.7616	429.0000
50.7810	460.0000
50.8005	467.0000
50.8200	531.0000
50.8394	571.0000
50.8589	620.0000
50.8783	647.0000
50.8978	669.0000
50.9172	679.0000
50.9367	725.0000
50.9562	786.0000
50.9756	879.0000
50.9951	807.0000
51.0145	853.0000
51.0340	768.0000
51.0534	776.0000
51.0729	809.0000
51.0924	782.0000
51.1118	726.0000
51.1313	652.0000
51.1507	634.0000
51.1702	619.0000
51.1896	602.0000
51.2091	554.0000
51.2286	507.0000
51.2480	492.0000
51.2675	458.0000
51.2869	450.0000
51.3064	425.0000
51.3258	379.0000
51.3453	355.0000
51.3648	354.0000
51.3842	362.0000
51.4037	326.0000
51.4231	317.0000
51.4426	310.0000
51.4620	308.0000
51.4815	288.0000
51.5010	288.0000
51.5204	285.0000
51.5399	292.0000
51.5593	283.0000
51.5788	260.0000
51.5982	276.0000
51.6177	239.0000
51.6372	257.0000
51.6566	249.0000
51.6761	253.0000
51.6955	260.0000
51.7150	265.0000
51.7344	249.0000
51.7539	246.0000
51.7734	247.0000
51.7928	250.0000
51.8123	246.0000
51.8317	238.0000
51.8512	262.0000
51.8706	223.0000
51.8901	251.0000
51.9096	223.0000
51.9290	274.0000
51.9485	238.0000
51.9679	248.0000
51.9874	236.0000
52.0068	233.0000
52.0263	221.0000
52.0458	225.0000
52.0652	238.0000
52.0847	233.0000
52.1041	221.0000
52.1236	238.0000
52.1430	217.0000
52.1625	233.0000
52.1820	236.0000
52.2014	231.0000
52.2209	204.0000
52.2403	217.0000
52.2598	257.0000
52.2792	253.0000
52.2987	246.0000
52.3182	232.0000
52.3376	203.0000
52.3571	244.0000
52.3765	246.0000
52.3960	207.0000
52.4154	218.0000
52.4349	228.0000
52.4544	233.0000
52.4738	207.0000
52.4933	225.0000
52.5127	236.0000
52.5322	237.0000
52.5516	228.0000
52.5711	224.0000
52.5905	210.0000
52.6100	204.0000
52.6295	211.0000
52.6489	253.0000
52.6684	217.0000
52.6878	235.0000
52.7073	228.0000
52.7267	235.0000
52.7462	231.0000
52.7657	230.0000
52.7851	233.0000
52.8046	235.0000
52.8240	220.0000
52.8435	224.0000
52.8629	203.0000
52.8824	221.0000
52.9019	193.0000
52.9213	237.0000
52.9408	241.0000
52.9602	203.0000
52.9797	250.0000
52.9991	241.0000
53.0186	213.0000
53.0381	221.0000
53.0575	197.0000
53.0770	224.0000
53.0964	232.0000
53.1159	220.0000
53.1353	221.0000
53.1548	241.0000
53.1743	225.0000
53.1937	227.0000
53.2132	203.0000
53.2326	223.0000
53.2521	224.0000
53.2715	183.0000
53.2910	218.0000
53.3105	238.0000
53.3299	206.0000
53.3494	250.0000
53.3688	241.0000
53.3883	226.0000
53.4077	213.0000
53.4272	195.0000
53.4467	209.0000
53.4661	216.0000
53.4856	213.0000
53.5050	195.0000
53.5245	213.0000
53.5439	239.0000
53.5634	243.0000
53.5829	206.0000
53.6023	235.0000
53.6218	226.0000
53.6412	199.0000
53.6607	229.0000
53.6801	197.0000
53.6996	227.0000
53.7191	218.0000
53.7385	211.0000
53.7580	192.0000
53.7774	211.0000
53.7969	203.0000
53.8163	225.0000
53.8358	209.0000
53.8553	239.0000
53.8747	203.0000
53.8942	226.0000
53.9136	209.0000
53.9331	214.0000
53.9525	231.0000
53.9720	182.0000
53.9915	206.0000
54.0109	228.0000
54.0304	224.0000
54.0498	212.0000
54.0693	239.0000
54.0887	240.0000
54.1082	235.0000
54.1277	218.0000
54.1471	216.0000
54.1666	197.0000
54.1860	237.0000
54.2055	228.0000
54.2249	231.0000
54.2444	246.0000
54.2639	212.0000
54.2833	244.0000
54.3028	236.0000
54.3222	218.0000
54.3417	242.0000
54.3611	222.0000
54.3806	217.0000
54.4001	221.0000
54.4195	249.0000
54.4390	220.0000
54.4584	243.0000
54.4779	204.0000
54.4973	214.0000
54.5168	226.0000
54.5363	209.0000
54.5557	230.0000
54.5752	217.0000
54.5946	240.0000
54.6141	207.0000
54.6335	219.0000
54.6530	230.0000
54.6725	229.0000
54.6919	201.0000
54.7114	233.0000
54.7308	224.0000
54.7503	242.0000
54.7697	205.0000
54.7892	207.0000
54.8087	231.0000
54.8281	243.0000
54.8476	208.0000
54.8670	225.0000
54.8865	218.0000
54.9059	222.0000
54.9254	220.0000
54.9449	220.0000
54.9643	208.0000
54.9838	226.0000
55.0032	204.0000
55.0227	242.0000
55.0421	226.0000
55.0616	223.0000
55.0811	229.0000
55.1005	215.0000
55.1200	215.0000
55.1394	214.0000
55.1589	206.0000
55.1783	214.0000
55.1978	235.0000
55.2173	231.0000
55.2367	208.0000
55.2562	184.0000
55.2756	195.0000
55.2951	193.0000
55.3145	228.0000
55.3340	204.0000
55.3534	222.0000
55.3729	213.0000
55.3924	221.0000
55.4118	223.0000
55.4313	231.0000
55.4507	228.0000
55.4702	202.0000
55.4896	220.0000
55.5091	218.0000
55.5286	226.0000
55.5480	212.0000
55.5675	233.0000
55.5869	208.0000
55.6064	239.0000
55.6258	234.0000
55.6453	216.0000
55.6648	225.0000
55.6842	220.0000
55.7037	223.0000
55.7231	217.0000
55.7426	243.0000
55.7620	223.0000
55.7815	223.0000
55.8010	219.0000
55.8204	254.0000
55.8399	226.0000
55.8593	211.0000
55.8788	211.0000
55.8982	229.0000
55.9177	231.0000
55.9372	260.0000
55.9566	222.0000
55.9761	216.0000
55.9955	214.0000
56.0150	254.0000
56.0344	226.0000
56.0539	234.0000
56.0734	245.0000
56.0928	256.0000
56.1123	246.0000
56.1317	206.0000
56.1512	249.0000
56.1706	225.0000
56.1901	220.0000
56.2096	206.0000
56.2290	210.0000
56.2485	209.0000
56.2679	234.0000
56.2874	206.0000
56.3068	221.0000
56.3263	234.0000
56.3458	247.0000
56.3652	235.0000
56.3847	220.0000
56.4041	230.0000
56.4236	205.0000
56.4430	216.0000
56.4625	216.0000
56.4820	259.0000
56.5014	216.0000
56.5209	225.0000
56.5403	207.0000
56.5598	231.0000
56.5792	217.0000
56.5987	205.0000
56.6182	191.0000
56.6376	236.0000
56.6571	223.0000
56.6765	221.0000
56.6960	227.0000
56.7154	228.0000
56.7349	231.0000
56.7544	237.0000
56.7738	238.0000
56.7933	238.0000
56.8127	260.0000
56.8322	217.0000
56.8516	239.0000
56.8711	245.0000
56.8906	248.0000
56.9100	234.0000
56.9295	235.0000
56.9489	246.0000
56.9684	232.0000
56.9878	249.0000
57.0073	235.0000
57.0268	221.0000
57.0462	244.0000
57.0657	235.0000
57.0851	224.0000
57.1046	223.0000
57.1240	255.0000
57.1435	219.0000
57.1630	203.0000
57.1824	250.0000
57.2019	239.0000
57.2213	244.0000
57.2408	236.0000
57.2602	253.0000
57.2797	206.0000
57.2992	238.0000
57.3186	220.0000
57.3381	235.0000
57.3575	226.0000
57.3770	215.0000
57.3964	235.0000
57.4159	220.0000
57.4354	221.0000
57.4548	239.0000
57.4743	189.0000
57.4937	223.0000
57.5132	199.0000
57.5326	241.0000
57.5521	212.0000
57.5716	209.0000
57.5910	211.0000
57.6105	209.0000
57.6299	232.0000
57.6494	234.0000
57.6688	197.0000
57.6883	245.0000
57.7078	226.0000
57.7272	240.0000
57.7467	231.0000
57.7661	249.0000
57.7856	214.0000
57.8050	211.0000
57.8245	202.0000
57.8440	205.0000
57.8634	211.0000
57.8829	217.0000
57.9023	215.0000
57.9218	235.0000
57.9412	219.0000
57.9607	210.0000
57.9802	225.0000
57.9996	206.0000
58.0191	220.0000
58.0385	225.0000
58.0580	227.0000
58.0774	202.0000
58.0969	211.0000
58.1163	230.0000
58.1358	223.0000
58.1553	219.0000
58.1747	227.0000
58.1942	218.0000
58.2136	217.0000
58.2331	246.0000
58.2525	217.0000
58.2720	185.0000
58.2915	207.0000
58.3109	238.0000
58.3304	237.0000
58.3498	205.0000
58.3693	211.0000
58.3887	240.0000
58.4082	219.0000
58.4277	236.0000
58.4471	224.0000
58.4666	220.0000
58.4860	239.0000
58.5055	228.0000
58.5249	220.0000
58.5444	218.0000
58.5639	224.0000
58.5833	201.0000
58.6028	218.0000
58.6222	213.0000
58.6417	241.0000
58.6611	196.0000
58.6806	216.0000
58.7001	208.0000
58.7195	233.0000
58.7390	211.0000
58.7584	202.0000
58.7779	249.0000
58.7973	229.0000
58.8168	228.0000
58.8363	257.0000
58.8557	216.0000
58.8752	216.0000
58.8946	201.0000
58.9141	220.0000
58.9335	190.0000
58.9530	227.0000
58.9725	203.0000
58.9919	225.0000
59.0114	201.0000
59.0308	224.0000
59.0503	237.0000
59.0697	206.0000
59.0892	205.0000
59.1087	226.0000
59.1281	221.0000
59.1476	206.0000
59.1670	220.0000
59.1865	215.0000
59.2059	226.0000
59.2254	212.0000
59.2449	241.0000
59.2643	215.0000
59.2838	235.0000
59.3032	240.0000
59.3227	247.0000
59.3421	236.0000
59.3616	241.0000
59.3811	230.0000
59.4005	208.0000
59.4200	224.0000
59.4394	210.0000
59.4589	218.0000
59.4783	217.0000
59.4978	223.0000
59.5173	237.0000
59.5367	185.0000
59.5562	191.0000
59.5756	219.0000
59.5951	231.0000
59.6145	214.0000
59.6340	216.0000
59.6535	225.0000
59.6729	199.0000
59.6924	217.0000
59.7118	222.0000
59.7313	243.0000
59.7507	214.0000
59.7702	218.0000
59.7897	225.0000
59.8091	255.0000
59.8286	220.0000
59.8480	217.0000
59.8675	242.0000
59.8869	214.0000
59.9064	226.0000
59.9259	231.0000
59.9453	234.0000
59.9648	222.0000
59.9842	225.0000
60.0037	214.0000
60.0231	251.0000
60.0426	222.0000
60.0621	230.0000
60.0815	252.0000
60.1010	199.0000
60.1204	218.0000
60.1399	246.0000
60.1593	227.0000
60.1788	255.0000
60.1983	258.0000
60.2177	224.0000
60.2372	267.0000
60.2566	239.0000
60.2761	260.0000
60.2955	242.0000
60.3150	233.0000
60.3345	234.0000
60.3539	237.0000
60.3734	250.0000
60.3928	243.0000
60.4123	233.0000
60.4317	231.0000
60.4512	227.0000
60.4707	204.0000
60.4901	234.0000
60.5096	234.0000
60.5290	227.0000
60.5485	226.0000
60.5679	234.0000
60.5874	210.0000
60.6069	202.0000
60.6263	239.0000
60.6458	231.0000
60.6652	245.0000
60.6847	220.0000
60.7041	195.0000
60.7236	218.0000
60.7431	255.0000
60.7625	217.0000
60.7820	228.0000
60.8014	216.0000
60.8209	223.0000
60.8403	208.0000
60.8598	237.0000
60.8793	229.0000
60.8987	224.0000
60.9182	245.0000
60.9376	230.0000
60.9571	211.0000
60.9765	211.0000
60.9960	228.0000
61.0154	218.0000
61.0349	199.0000
61.0544	241.0000
61.0738	220.0000
61.0933	201.0000
61.1127	246.0000
61.1322	196.0000
61.1516	247.0000
61.1711	193.0000
61.1906	204.0000
61.2100	250.0000
61.2295	229.0000
61.2489	224.0000
61.2684	233.0000
61.2878	205.0000
61.3073	237.0000
61.3268	236.0000
61.3462	205.0000
61.3657	226.0000
61.3851	211.0000
61.4046	223.0000
61.4240	228.0000
61.4435	204.0000
61.4630	224.0000
61.4824	234.0000
61.5019	216.0000
61.5213	209.0000
61.5408	229.0000
61.5602	243.0000
61.5797	237.0000
61.5992	218.0000
61.6186	209.0000
61.6381	221.0000
61.6575	222.0000
61.6770	197.0000
61.6964	206.0000
61.7159	223.0000
61.7354	216.0000
61.7548	201.0000
61.7743	224.0000
61.7937	247.0000
61.8132	202.0000
61.8326	227.0000
61.8521	224.0000
61.8716	220.0000
61.8910	180.0000
61.9105	205.0000
61.9299	229.0000
61.9494	210.0000
61.9688	223.0000
61.9883	219.0000
62.0078	219.0000
62.0272	209.0000
62.0467	199.0000
62.0661	231.0000
62.0856	216.0000
62.1050	234.0000
62.1245	203.0000
62.1440	221.0000
62.1634	213.0000
62.1829	236.0000
62.2023	183.0000
62.2218	233.0000
62.2412	210.0000
62.2607	236.0000
62.2802	216.0000
62.2996	188.0000
62.3191	218.0000
62.3385	219.0000
62.3580	236.0000
62.3774	209.0000
62.3969	227.0000
62.4164	229.0000
62.4358	211.0000
62.4553	236.0000
62.4747	226.0000
62.4942	230.0000
62.5136	208.0000
62.5331	199.0000
62.5526	233.0000
62.5720	237.0000
62.5915	226.0000
62.6109	216.0000
62.6304	195.0000
62.6498	236.0000
62.6693	225.0000
62.6888	224.0000
62.7082	240.0000
62.7277	231.0000
62.7471	227.0000
62.7666	222.0000
62.7860	218.0000
62.8055	208.0000
62.8250	257.0000
62.8444	233.0000
62.8639	244.0000
62.8833	201.0000
62.9028	202.0000
62.9222	217.0000
62.9417	219.0000
62.9612	218.0000
62.9806	204.0000
63.0001	194.0000
63.0195	193.0000
63.0390	208.0000
63.0584	218.0000
63.0779	205.0000
63.0974	236.0000
63.1168	206.0000
63.1363	220.0000
63.1557	188.0000
63.1752	229.0000
63.1946	229.0000
63.2141	213.0000
63.2336	215.0000
63.2530	223.0000
63.2725	251.0000
63.2919	202.0000
63.3114	216.0000
63.3308	212.0000
63.3503	218.0000
63.3698	234.0000
63.3892	222.0000
63.4087	221.0000
63.4281	204.0000
63.4476	214.0000
63.4670	211.0000
63.4865	234.0000
63.5060	210.0000
63.5254	227.0000
63.5449	214.0000
63.5643	206.0000
63.5838	208.0000
63.6032	217.0000
63.6227	231.0000
63.6422	219.0000
63.6616	230.0000
63.6811	197.0000
63.7005	221.0000
63.7200	213.0000
63.7394	194.0000
63.7589	228.0000
63.7783	207.0000
63.7978	222.0000
63.8173	222.0000
63.8367	207.0000
63.8562	213.0000
63.8756	207.0000
63.8951	203.0000
63.9145	218.0000
63.9340	246.0000
63.9535	208.0000
63.9729	226.0000
63.9924	233.0000
64.0118	238.0000
64.0313	231.0000
64.0507	223.0000
64.0702	212.0000
64.0897	243.0000
64.1091	229.0000
64.1286	245.0000
64.1480	206.0000
64.1675	221.0000
64.1869	260.0000
64.2064	231.0000
64.2259	249.0000
64.2453	228.0000
64.2648	227.0000
64.2842	275.0000
64.3037	242.0000
64.3231	228.0000
64.3426	234.0000
64.3621	228.0000
64.3815	221.0000
64.4010	238.0000
64.4204	261.0000
64.4399	242.0000
64.4593	224.0000
64.4788	203.0000
64.4983	214.0000
64.5177	241.0000
64.5372	210.0000
64.5566	256.0000
64.5761	222.0000
64.5955	207.0000
64.6150	235.0000
64.6345	235.0000
64.6539	218.0000
64.6734	209.0000
64.6928	218.0000
64.7123	230.0000
64.7317	221.0000
64.7512	215.0000
64.7707	219.0000
64.7901	246.0000
64.8096	215.0000
64.8290	240.0000
64.8485	244.0000
64.8679	244.0000
64.8874	211.0000
64.9069	223.0000
64.9263	214.0000
64.9458	223.0000
64.9652	244.0000
64.9847	243.0000
65.0041	190.0000
65.0236	212.0000
65.0431	232.0000
65.0625	238.0000
65.0820	234.0000
65.1014	230.0000
65.1209	230.0000
65.1403	208.0000
65.1598	249.0000
65.1793	219.0000
65.1987	239.0000
65.2182	236.0000
65.2376	210.0000
65.2571	232.0000
65.2765	240.0000
65.2960	210.0000
65.3155	209.0000
65.3349	229.0000
65.3544	232.0000
65.3738	204.0000
65.3933	224.0000
65.4127	227.0000
65.4322	234.0000
65.4517	216.0000
65.4711	241.0000
65.4906	205.0000
65.5100	220.0000
65.5295	188.0000
65.5489	218.0000
65.5684	223.0000
65.5879	215.0000
65.6073	235.0000
65.6268	235.0000
65.6462	214.0000
65.6657	204.0000
65.6851	201.0000
65.7046	241.0000
65.7241	177.0000
65.7435	237.0000
65.7630	238.0000
65.7824	230.0000
65.8019	213.0000
65.8213	241.0000
65.8408	239.0000
65.8603	227.0000
65.8797	203.0000
65.8992	234.0000
65.9186	210.0000
65.9381	217.0000
65.9575	224.0000
65.9770	220.0000
65.9965	223.0000
66.0159	232.0000
66.0354	254.0000
66.0548	237.0000
66.0743	191.0000
66.0937	218.0000
66.1132	211.0000
66.1327	194.0000
66.1521	224.0000
66.1716	224.0000
66.1910	220.0000
66.2105	243.0000
66.2299	233.0000
66.2494	215.0000
66.2689	201.0000
66.2883	183.0000
66.3078	235.0000
66.3272	226.0000
66.3467	231.0000
66.3661	209.0000
66.3856	205.0000
66.4051	208.0000
66.4245	233.0000
66.4440	217.0000
66.4634	196.0000
66.4829	195.0000
66.5023	232.0000
66.5218	217.0000
66.5413	215.0000
66.5607	218.0000
66.5802	235.0000
66.5996	201.0000
66.6191	207.0000
66.6385	210.0000
66.6580	224.0000
66.6774	198.0000
66.6969	232.0000
66.7164	212.0000
66.7358	220.0000
66.7553	225.0000
66.7747	221.0000
66.7942	201.0000
66.8136	238.0000
66.8331	248.0000
66.8526	188.0000
66.8720	212.0000
66.8915	214.0000
66.9109	184.0000
66.9304	189.0000
66.9498	222.0000
66.9693	209.0000
66.9888	216.0000
67.0082	231.0000
67.0277	205.0000
67.0471	221.0000
67.0666	214.0000
67.0860	238.0000
67.1055	210.0000
67.1250	219.0000
67.1444	216.0000
67.1639	224.0000
67.1833	222.0000
67.2028	234.0000
67.2222	216.0000
67.2417	195.0000
67.2612	233.0000
67.2806	227.0000
67.3001	220.0000
67.3195	213.0000
67.3390	198.0000
67.3584	229.0000
67.3779	209.0000
67.3974	216.0000
67.4168	218.0000
67.4363	216.0000
67.4557	191.0000
67.4752	201.0000
67.4946	220.0000
67.5141	211.0000
67.5336	240.0000
67.5530	190.0000
67.5725	223.0000
67.5919	216.0000
67.6114	176.0000
67.6308	199.0000
67.6503	240.0000
67.6698	224.0000
67.6892	227.0000
67.7087	184.0000
67.7281	205.0000
67.7476	227.0000
67.7670	208.0000
67.7865	208.0000
67.8060	230.0000
67.8254	211.0000
67.8449	225.0000
67.8643	210.0000
67.8838	230.0000
67.9032	215.0000
67.9227	244.0000
67.9422	217.0000
67.9616	195.0000
67.9811	229.0000
68.0005	229.0000
68.0200	213.0000
68.0394	202.0000
68.0589	227.0000
68.0784	237.0000
68.0978	212.0000
68.1173	212.0000
68.1367	205.0000
68.1562	208.0000
68.1756	227.0000
68.1951	213.0000
68.2146	228.0000
68.2340	217.0000
68.2535	225.0000
68.2729	214.0000
68.2924	218.0000
68.3118	214.0000
68.3313	231.0000
68.3508	233.0000
68.3702	199.0000
68.3897	218.0000
68.4091	219.0000
68.4286	199.0000
68.4480	208.0000
68.4675	212.0000
68.4870	231.0000
68.5064	240.0000
68.5259	219.0000
68.5453	238.0000
68.5648	218.0000
68.5842	240.0000
68.6037	228.0000
68.6232	206.0000
68.6426	220.0000
68.6621	220.0000
68.6815	212.0000
68.7010	217.0000
68.7204	220.0000
68.7399	212.0000
68.7594	232.0000
68.7788	210.0000
68.7983	188.0000
68.8177	218.0000
68.8372	225.0000
68.8566	224.0000
68.8761	247.0000
68.8956	224.0000
68.9150	243.0000
68.9345	243.0000
68.9539	215.0000
68.9734	241.0000
68.9928	242.0000
69.0123	227.0000
69.0318	211.0000
69.0512	223.0000
69.0707	219.0000
69.0901	225.0000
69.1096	227.0000
69.1290	219.0000
69.1485	226.0000
69.1680	215.0000
69.1874	220.0000
69.2069	238.0000
69.2263	197.0000
69.2458	231.0000
69.2652	240.0000
69.2847	211.0000
69.3042	212.0000
69.3236	212.0000
69.3431	193.0000
69.3625	228.0000
69.3820	203.0000
69.4014	225.0000
69.4209	219.0000
69.4403	221.0000
69.4598	211.0000
69.4793	264.0000
69.4987	220.0000
69.5182	238.0000
69.5376	236.0000
69.5571	220.0000
69.5765	233.0000
69.5960	220.0000
69.6155	244.0000
69.6349	216.0000
69.6544	194.0000
69.6738	209.0000
69.6933	246.0000
69.7127	239.0000
69.7322	211.0000
69.7517	235.0000
69.7711	234.0000
69.7906	217.0000
69.8100	256.0000
69.8295	255.0000
69.8489	211.0000
69.8684	200.0000
69.8879	248.0000
69.9073	228.0000
69.9268	221.0000
69.9462	236.0000
69.9657	219.0000
69.9851	217.0000
70.0046	206.0000
70.0241	201.0000
70.0435	217.0000
70.0630	238.0000
70.0824	238.0000
70.1019	211.0000
70.1213	224.0000
70.1408	241.0000
70.1603	212.0000
70.1797	228.0000
70.1992	241.0000
70.2186	217.0000
70.2381	208.0000
70.2575	215.0000
70.2770	209.0000
70.2965	222.0000
70.3159	215.0000
70.3354	239.0000
70.3548	213.0000
70.3743	215.0000
70.3937	222.0000
70.4132	206.0000
70.4327	249.0000
70.4521	215.0000
70.4716	230.0000
70.4910	210.0000
70.5105	238.0000
70.5299	241.0000
70.5494	226.0000
70.5689	232.0000
70.5883	219.0000
70.6078	235.0000
70.6272	222.0000
70.6467	229.0000
70.6661	209.0000
70.6856	216.0000
70.7051	215.0000
70.7245	227.0000
70.7440	208.0000
70.7634	202.0000
70.7829	223.0000
70.8023	236.0000
70.8218	235.0000
70.8413	229.0000
70.8607	199.0000
70.8802	206.0000
70.8996	244.0000
70.9191	207.0000
70.9385	208.0000
70.9580	244.0000
70.9775	219.0000
70.9969	208.0000
71.0164	214.0000
71.0358	224.0000
71.0553	231.0000
71.0747	192.0000
71.0942	239.0000
71.1137	227.0000
71.1331	238.0000
71.1526	216.0000
71.1720	213.0000
71.1915	261.0000
71.2109	210.0000
71.2304	219.0000
71.2499	227.0000
71.2693	218.0000
71.2888	221.0000
71.3082	216.0000
71.3277	229.0000
71.3471	210.0000
71.3666	206.0000
71.3861	230.0000
71.4055	210.0000
71.4250	242.0000
71.4444	226.0000
71.4639	223.0000
71.4833	214.0000
71.5028	201.0000
71.5223	216.0000
71.5417	229.0000
71.5612	216.0000
71.5806	199.0000
71.6001	227.0000
71.6195	225.0000
71.6390	214.0000
71.6585	220.0000
71.6779	211.0000
71.6974	227.0000
71.7168	224.0000
71.7363	240.0000
71.7557	214.0000
71.7752	215.0000
71.7947	216.0000
71.8141	202.0000
71.8336	217.0000
71.8530	206.0000
71.8725	230.0000
71.8919	222.0000
71.9114	224.0000
71.9309	235.0000
71.9503	222.0000
71.9698	221.0000
71.9892	229.0000
72.0087	222.0000
72.0281	240.0000
72.0476	230.0000
72.0671	224.0000
72.0865	189.0000
72.1060	225.0000
72.1254	231.0000
72.1449	229.0000
72.1643	199.0000
72.1838	232.0000
72.2032	220.0000
72.2227	233.0000
72.2422	206.0000
72.2616	231.0000
72.2811	210.0000
72.3005	227.0000
72.3200	224.0000
72.3394	237.0000
72.3589	237.0000
72.3784	241.0000
72.3978	220.0000
72.4173	253.0000
72.4367	196.0000
72.4562	219.0000
72.4756	218.0000
72.4951	242.0000
72.5146	239.0000
72.5340	256.0000
72.5535	235.0000
72.5729	219.0000
72.5924	206.0000
72.6118	216.0000
72.6313	239.0000
72.6508	224.0000
72.6702	222.0000
72.6897	251.0000
72.7091	221.0000
72.7286	243.0000
72.7480	242.0000
72.7675	221.0000
72.7870	237.0000
72.8064	203.0000
72.8259	223.0000
72.8453	202.0000
72.8648	217.0000
72.8842	211.0000
72.9037	238.0000
72.9232	242.0000
72.9426	224.0000
72.9621	257.0000
72.9815	261.0000
73.0010	223.0000
73.0204	225.0000
73.0399	227.0000
73.0594	224.0000
73.0788	217.0000
73.0983	210.0000
73.1177	233.0000
73.1372	217.0000
73.1566	249.0000
73.1761	217.0000
73.1956	253.0000
73.2150	214.0000
73.2345	210.0000
73.2539	213.0000
73.2734	209.0000
73.2928	228.0000
73.3123	232.0000
73.3318	253.0000
73.3512	237.0000
73.3707	242.0000
73.3901	219.0000
73.4096	235.0000
73.4290	230.0000
73.4485	233.0000
73.4680	220.0000
73.4874	229.0000
73.5069	228.0000
73.5263	227.0000
73.5458	198.0000
73.5652	228.0000
73.5847	228.0000
73.6042	215.0000
73.6236	205.0000
73.6431	197.0000
73.6625	197.0000
73.6820	220.0000
73.7014	218.0000
73.7209	248.0000
73.7404	225.0000
73.7598	202.0000
73.7793	223.0000
73.7987	237.0000
73.8182	199.0000
73.8376	235.0000
73.8571	247.0000
73.8766	186.0000
73.8960	195.0000
73.9155	209.0000
73.9349	218.0000
73.9544	238.0000
73.9738	205.0000
73.9933	207.0000
74.0128	233.0000
74.0322	243.0000
74.0517	236.0000
74.0711	246.0000
74.0906	214.0000
74.1100	252.0000
74.1295	228.0000
74.1490	227.0000
74.1684	233.0000
74.1879	232.0000
74.2073	208.0000
74.2268	212.0000
74.2462	252.0000
74.2657	223.0000
74.2852	253.0000
74.3046	230.0000
74.3241	227.0000
74.3435	234.0000
74.3630	237.0000
74.3824	247.0000
74.4019	245.0000
74.4214	235.0000
74.4408	221.0000
74.4603	208.0000
74.4797	245.0000
74.4992	245.0000
74.5186	258.0000
74.5381	203.0000
74.5576	219.0000
74.5770	235.0000
74.5965	241.0000
74.6159	275.0000
74.6354	228.0000
74.6548	242.0000
74.6743	256.0000
74.6938	232.0000
74.7132	248.0000
74.7327	290.0000
74.7521	264.0000
74.7716	252.0000
74.7910	312.0000
74.8105	308.0000
74.8300	285.0000
74.8494	249.0000
74.8689	301.0000
74.8883	288.0000
74.9078	279.0000
74.9272	301.0000
74.9467	295.0000
74.9662	298.0000
74.9856	329.0000
75.0051	290.0000
75.0245	294.0000
75.0440	322.0000
75.0634	345.0000
75.0829	334.0000
75.1023	307.0000
75.1218	319.0000
75.1413	305.0000
75.1607	310.0000
75.1802	256.0000
75.1996	292.0000
75.2191	314.0000
75.2385	292.0000
75.2580	313.0000
75.2775	311.0000
75.2969	275.0000
75.3164	264.0000
75.3358	294.0000
75.3553	280.0000
75.3747	275.0000
75.3942	279.0000
75.4137	281.0000
75.4331	264.0000
75.4526	246.0000
75.4720	270.0000
75.4915	267.0000
75.5109	238.0000
75.5304	225.0000
75.5499	257.0000
75.5693	252.0000
75.5888	225.0000
75.6082	243.0000
75.6277	248.0000
75.6471	229.0000
75.6666	237.0000
75.6861	227.0000
75.7055	231.0000
75.7250	254.0000
75.7444	244.0000
75.7639	266.0000
75.7833	260.0000
75.8028	251.0000
75.8223	256.0000
75.8417	236.0000
75.8612	286.0000
75.8806	230.0000
75.9001	213.0000
75.9195	237.0000
75.9390	243.0000
75.9585	220.0000
75.9779	220.0000
75.9974	238.0000
76.0168	207.0000
76.0363	248.0000
76.0557	255.0000
76.0752	210.0000
76.0947	217.0000
76.1141	223.0000
76.1336	206.0000
76.1530	223.0000
76.1725	258.0000
76.1919	220.0000
76.2114	214.0000
76.2309	215.0000
76.2503	250.0000
76.2698	236.0000
76.2892	218.0000
76.3087	233.0000
76.3281	263.0000
76.3476	218.0000
76.3671	205.0000
76.3865	214.0000
76.4060	227.0000
76.4254	202.0000
76.4449	242.0000
76.4643	191.0000
76.4838	236.0000
76.5033	221.0000
76.5227	225.0000
76.5422	246.0000
76.5616	237.0000
76.5811	229.0000
76.6005	260.0000
76.6200	204.0000
76.6395	228.0000
76.6589	215.0000
76.6784	221.0000
76.6978	244.0000
76.7173	219.0000
76.7367	219.0000
76.7562	223.0000
76.7757	248.0000
76.7951	248.0000
76.8146	231.0000
76.8340	220.0000
76.8535	222.0000
76.8729	225.0000
76.8924	231.0000
76.9119	245.0000
76.9313	214.0000
76.9508	210.0000
76.9702	215.0000
76.9897	226.0000
77.0091	227.0000
77.0286	221.0000
77.0481	242.0000
77.0675	231.0000
77.0870	218.0000
77.1064	240.0000
77.1259	251.0000
77.1453	220.0000
77.1648	228.0000
77.1843	192.0000
77.2037	231.0000
77.2232	254.0000
77.2426	212.0000
77.2621	214.0000
77.2815	235.0000
77.3010	235.0000
77.3205	243.0000
77.3399	228.0000
77.3594	230.0000
77.3788	241.0000
77.3983	236.0000
77.4177	233.0000
77.4372	235.0000
77.4567	241.0000
77.4761	210.0000
77.4956	244.0000
77.5150	230.0000
77.5345	212.0000
77.5539	215.0000
77.5734	224.0000
77.5929	207.0000
77.6123	219.0000
77.6318	208.0000
77.6512	215.0000
77.6707	234.0000
77.6901	209.0000
77.7096	230.0000
77.7291	225.0000
77.7485	215.0000
77.7680	209.0000
77.7874	227.0000
77.8069	220.0000
77.8263	225.0000
77.8458	238.0000
77.8652	220.0000
77.8847	230.0000
77.9042	232.0000
77.9236	232.0000
77.9431	244.0000
77.9625	237.0000
77.9820	231.0000
78.0014	227.0000
78.0209	187.0000
78.0404	237.0000
78.0598	223.0000
78.0793	244.0000
78.0987	246.0000
78.1182	215.0000
78.1376	209.0000
78.1571	199.0000
78.1766	244.0000
78.1960	218.0000
78.2155	214.0000
78.2349	188.0000
78.2544	226.0000
78.2738	220.0000
78.2933	200.0000
78.3128	240.0000
78.3322	226.0000
78.3517	242.0000
78.3711	226.0000
78.3906	231.0000
78.4100	222.0000
78.4295	221.0000
78.4490	224.0000
78.4684	213.0000
78.4879	230.0000
78.5073	237.0000
78.5268	232.0000
78.5462	207.0000
78.5657	225.0000
78.5852	206.0000
78.6046	211.0000
78.6241	211.0000
78.6435	226.0000
78.6630	215.0000
78.6824	202.0000
78.7019	236.0000
78.7214	248.0000
78.7408	223.0000
78.7603	200.0000
78.7797	223.0000
78.7992	226.0000
78.8186	207.0000
78.8381	201.0000
78.8576	222.0000
78.8770	223.0000
78.8965	233.0000
78.9159	228.0000
78.9354	217.0000
78.9548	224.0000
78.9743	198.0000
78.9938	196.0000
79.0132	246.0000
79.0327	216.0000
79.0521	241.0000
79.0716	222.0000
79.0910	238.0000
79.1105	233.0000
79.1300	247.0000
79.1494	234.0000
79.1689	207.0000
79.1883	222.0000
79.2078	215.0000
79.2272	200.0000
79.2467	199.0000
79.2662	227.0000
79.2856	232.0000
79.3051	204.0000
79.3245	210.0000
79.3440	232.0000
79.3634	228.0000
79.3829	236.0000
79.4024	208.0000
79.4218	207.0000
79.4413	215.0000
79.4607	228.0000
79.4802	217.0000
79.4996	248.0000
79.5191	220.0000
79.5386	202.0000
79.5580	239.0000
79.5775	232.0000
79.5969	213.0000
79.6164	197.0000
79.6358	211.0000
79.6553	238.0000
79.6748	242.0000
79.6942	206.0000
79.7137	210.0000
79.7331	226.0000
79.7526	222.0000
79.7720	228.0000
79.7915	203.0000
79.8110	233.0000
79.8304	212.0000
79.8499	230.0000
79.8693	222.0000
79.8888	205.0000
79.9082	221.0000
79.9277	212.0000
79.9472	214.0000
79.9666	222.0000
79.9861	236.0000
80.0055	228.0000
80.0250	221.0000
80.0444	227.0000
80.0639	210.0000
80.0834	232.0000
80.1028	224.0000
80.1223	229.0000
80.1417	210.0000
80.1612	245.0000
80.1806	197.0000
80.2001	228.0000
80.2196	200.0000
80.2390	241.0000
80.2585	218.0000
80.2779	225.0000
80.2974	231.0000
80.3168	193.0000
80.3363	228.0000
80.3558	242.0000
80.3752	208.0000
80.3947	223.0000
80.4141	242.0000
80.4336	210.0000
80.4530	216.0000
80.4725	215.0000
80.4920	234.0000
80.5114	233.0000
80.5309	219.0000
80.5503	217.0000
80.5698	209.0000
80.5892	222.0000
80.6087	249.0000
80.6281	233.0000
80.6476	255.0000
80.6671	216.0000
80.6865	214.0000
80.7060	251.0000
80.7254	244.0000
80.7449	200.0000
80.7643	232.0000
80.7838	240.0000
80.8033	233.0000
80.8227	198.0000
80.8422	234.0000
80.8616	227.0000
80.8811	228.0000
80.9005	210.0000
80.9200	211.0000
80.9395	249.0000
80.9589	241.0000
80.9784	224.0000
80.9978	221.0000
81.0173	253.0000
81.0367	233.0000
81.0562	220.0000
81.0757	260.0000
81.0951	204.0000
81.1146	229.0000
81.1340	211.0000
81.1535	228.0000
81.1729	246.0000
81.1924	231.0000
81.2119	226.0000
81.2313	244.0000
81.2508	217.0000
81.2702	213.0000
81.2897	246.0000
81.3091	233.0000
81.3286	234.0000
81.3481	255.0000
81.3675	202.0000
81.3870	221.0000
81.4064	195.0000
81.4259	217.0000
81.4453	217.0000
81.4648	228.0000
81.4843	219.0000
81.5037	227.0000
81.5232	250.0000
81.5426	212.0000
81.5621	208.0000
81.5815	218.0000
81.6010	231.0000
81.6205	234.0000
81.6399	218.0000
81.6594	209.0000
81.6788	217.0000
81.6983	220.0000
81.7177	229.0000
81.7372	260.0000
81.7567	203.0000
81.7761	215.0000
81.7956	253.0000
81.8150	237.0000
81.8345	255.0000
81.8539	238.0000
81.8734	187.0000
81.8929	238.0000
81.9123	216.0000
81.9318	211.0000
81.9512	233.0000
81.9707	239.0000
81.9901	211.0000
82.0096	250.0000
82.0291	229.0000
82.0485	222.0000
82.0680	240.0000
82.0874	227.0000
82.1069	237.0000
82.1263	226.0000
82.1458	237.0000
82.1653	226.0000
82.1847	217.0000
82.2042	211.0000
82.2236	249.0000
82.2431	225.0000
82.2625	259.0000
82.2820	222.0000
82.3015	239.0000
82.3209	230.0000
82.3404	248.0000
82.3598	234.0000
82.3793	214.0000
82.3987	216.0000
82.4182	239.0000
82.4377	228.0000
82.4571	222.0000
82.4766	246.0000
82.4960	223.0000
82.5155	184.0000
82.5349	216.0000
82.5544	255.0000
82.5739	212.0000
82.5933	200.0000
82.6128	227.0000
82.6322	199.0000
82.6517	253.0000
82.6711	231.0000
82.6906	233.0000
82.7101	220.0000
82.7295	224.0000
82.7490	195.0000
82.7684	217.0000
82.7879	211.0000
82.8073	224.0000
82.8268	254.0000
82.8463	224.0000
82.8657	241.0000
82.8852	216.0000
82.9046	210.0000
82.9241	209.0000
82.9435	212.0000
82.9630	213.0000
82.9825	211.0000
83.0019	228.0000
83.0214	209.0000
83.0408	215.0000
83.0603	257.0000
83.0797	233.0000
83.0992	211.0000
83.1187	218.0000
83.1381	222.0000
83.1576	215.0000
83.1770	227.0000
83.1965	202.0000
83.2159	231.0000
83.2354	276.0000
83.2549	217.0000
83.2743	214.0000
83.2938	209.0000
83.3132	248.0000
83.3327	211.0000
83.3521	244.0000
83.3716	266.0000
83.3911	241.0000
83.4105	226.0000
83.4300	234.0000
83.4494	218.0000
83.4689	242.0000
83.4883	240.0000
83.5078	231.0000
83.5272	273.0000
83.5467	226.0000
83.5662	204.0000
83.5856	220.0000
83.6051	259.0000
83.6245	240.0000
83.6440	215.0000
83.6634	228.0000
83.6829	231.0000
83.7024	237.0000
83.7218	226.0000
83.7413	235.0000
83.7607	225.0000
83.7802	226.0000
83.7996	229.0000
83.8191	257.0000
83.8386	210.0000
83.8580	232.0000
83.8775	238.0000
83.8969	222.0000
83.9164	214.0000
83.9358	230.0000
83.9553	211.0000
83.9748	246.0000
83.9942	245.0000
84.0137	207.0000
84.0331	249.0000
84.0526	208.0000
84.0720	223.0000
84.0915	237.0000
84.1110	250.0000
84.1304	223.0000
84.1499	222.0000
84.1693	220.0000
84.1888	232.0000
84.2082	247.0000
84.2277	204.0000
84.2472	224.0000
84.2666	221.0000
84.2861	220.0000
84.3055	223.0000
84.3250	221.0000
84.3444	220.0000
84.3639	218.0000
84.3834	246.0000
84.4028	206.0000
84.4223	226.0000
84.4417	222.0000
84.4612	204.0000
84.4806	215.0000
84.5001	217.0000
84.5196	227.0000
84.5390	234.0000
84.5585	233.0000
84.5779	188.0000
84.5974	220.0000
84.6168	212.0000
84.6363	229.0000
84.6558	239.0000
84.6752	232.0000
84.6947	239.0000
84.7141	206.0000
84.7336	204.0000
84.7530	217.0000
84.7725	266.0000
84.7920	215.0000
84.8114	235.0000
84.8309	229.0000
84.8503	206.0000
84.8698	238.0000
84.8892	233.0000
84.9087	226.0000
84.9282	223.0000
84.9476	209.0000
84.9671	233.0000
84.9865	212.0000
85.0060	209.0000
85.0254	236.0000
85.0449	233.0000
85.0644	205.0000
85.0838	238.0000
85.1033	217.0000
85.1227	226.0000
85.1422	237.0000
85.1616	205.0000
85.1811	191.0000
85.2006	205.0000
85.2200	240.0000
85.2395	217.0000
85.2589	229.0000
85.2784	202.0000
85.2978	230.0000
85.3173	231.0000
85.3368	225.0000
85.3562	230.0000
85.3757	214.0000
85.3951	220.0000
85.4146	229.0000
85.4340	223.0000
85.4535	203.0000
85.4730	203.0000
85.4924	220.0000
85.5119	223.0000
85.5313	215.0000
85.5508	223.0000
85.5702	222.0000
85.5897	215.0000
85.6092	218.0000
85.6286	217.0000
85.6481	221.0000
85.6675	202.0000
85.6870	247.0000
85.7064	232.0000
85.7259	224.0000
85.7454	260.0000
85.7648	233.0000
85.7843	223.0000
85.8037	203.0000
85.8232	197.0000
85.8426	241.0000
85.8621	197.0000
85.8816	231.0000
85.9010	245.0000
85.9205	232.0000
85.9399	213.0000
85.9594	202.0000
85.9788	280.0000
85.9983	239.0000
86.0178	232.0000
86.0372	206.0000
86.0567	223.0000
86.0761	229.0000
86.0956	222.0000
86.1150	241.0000
86.1345	230.0000
86.1540	244.0000
86.1734	225.0000
86.1929	225.0000
86.2123	216.0000
86.2318	208.0000
86.2512	227.0000
86.2707	213.0000
86.2901	256.0000
86.3096	226.0000
86.3291	238.0000
86.3485	208.0000
86.3680	203.0000
86.3874	236.0000
86.4069	230.0000
86.4263	227.0000
86.4458	214.0000
86.4653	240.0000
86.4847	201.0000
86.5042	245.0000
86.5236	200.0000
86.5431	226.0000
86.5625	193.0000
86.5820	207.0000
86.6015	204.0000
86.6209	220.0000
86.6404	219.0000
86.6598	194.0000
86.6793	222.0000
86.6987	226.0000
86.7182	247.0000
86.7377	242.0000
86.7571	225.0000
86.7766	227.0000
86.7960	243.0000
86.8155	207.0000
86.8349	224.0000
86.8544	244.0000
86.8739	220.0000
86.8933	242.0000
86.9128	221.0000
86.9322	223.0000
86.9517	220.0000
86.9711	209.0000
86.9906	211.0000
87.0101	244.0000
87.0295	238.0000
87.0490	218.0000
87.0684	222.0000
87.0879	208.0000
87.1073	234.0000
87.1268	202.0000
87.1463	237.0000
87.1657	199.0000
87.1852	204.0000
87.2046	222.0000
87.2241	234.0000
87.2435	222.0000
87.2630	235.0000
87.2825	228.0000
87.3019	224.0000
87.3214	226.0000
87.3408	226.0000
87.3603	215.0000
87.3797	260.0000
87.3992	210.0000
87.4187	238.0000
87.4381	220.0000
87.4576	192.0000
87.4770	197.0000
87.4965	231.0000
87.5159	206.0000
87.5354	227.0000
87.5549	205.0000
87.5743	226.0000
87.5938	226.0000
87.6132	228.0000
87.6327	219.0000
87.6521	244.0000
87.6716	241.0000
87.6911	221.0000
87.7105	212.0000
87.7300	251.0000
87.7494	197.0000
87.7689	249.0000
87.7883	235.0000
87.8078	220.0000
87.8273	220.0000
87.8467	230.0000
87.8662	209.0000
87.8856	222.0000
87.9051	221.0000
87.9245	224.0000
87.9440	223.0000
87.9635	221.0000
87.9829	246.0000
88.0024	212.0000
88.0218	229.0000
88.0413	211.0000
88.0607	207.0000
88.0802	226.0000
88.0997	202.0000
88.1191	223.0000
88.1386	213.0000
88.1580	237.0000
88.1775	199.0000
88.1969	214.0000
88.2164	215.0000
88.2359	233.0000
88.2553	214.0000
88.2748	212.0000
88.2942	226.0000
88.3137	242.0000
88.3331	224.0000
88.3526	233.0000
88.3721	223.0000
88.3915	224.0000
88.4110	247.0000
88.4304	210.0000
88.4499	223.0000
88.4693	216.0000
88.4888	210.0000
88.5083	216.0000
88.5277	218.0000
88.5472	224.0000
88.5666	254.0000
88.5861	238.0000
88.6055	198.0000
88.6250	217.0000
88.6445	240.0000
88.6639	192.0000
88.6834	194.0000
88.7028	218.0000
88.7223	248.0000
88.7417	233.0000
88.7612	225.0000
88.7807	209.0000
88.8001	208.0000
88.8196	215.0000
88.8390	217.0000
88.8585	210.0000
88.8779	268.0000
88.8974	214.0000
88.9169	232.0000
88.9363	229.0000
88.9558	210.0000
88.9752	204.0000
88.9947	231.0000
89.0141	202.0000
89.0336	203.0000
89.0531	238.0000
89.0725	238.0000
89.0920	248.0000
89.1114	214.0000
89.1309	218.0000
89.1503	217.0000
89.1698	238.0000
89.1892	220.0000
89.2087	247.0000
89.2282	237.0000
89.2476	218.0000
89.2671	206.0000
89.2865	244.0000
89.3060	234.0000
89.3254	232.0000
89.3449	237.0000
89.3644	205.0000
89.3838	228.0000
89.4033	238.0000
89.4227	248.0000
89.4422	199.0000
89.4616	230.0000
89.4811	225.0000
89.5006	245.0000
89.5200	232.0000
89.5395	204.0000
89.5589	226.0000
89.5784	264.0000
89.5978	217.0000
89.6173	230.0000
89.6368	250.0000
89.6562	245.0000
89.6757	244.0000
89.6951	239.0000
89.7146	233.0000
89.7340	221.0000
89.7535	234.0000
89.7730	201.0000
89.7924	240.0000
89.8119	255.0000
89.8313	248.0000
89.8508	240.0000
89.8702	234.0000
89.8897	253.0000
89.9092	240.0000
89.9286	243.0000
89.9481	228.0000
89.9675	223.0000
89.9870	246.0000
90.0064	263.0000
90.0259	247.0000
90.0454	232.0000
90.0648	250.0000
90.0843	252.0000
90.1037	250.0000
90.1232	237.0000
90.1426	236.0000
90.1621	237.0000
90.1816	259.0000
90.2010	251.0000
90.2205	259.0000
90.2399	228.0000
90.2594	221.0000
90.2788	269.0000
90.2983	244.0000
90.3178	252.0000
90.3372	252.0000
90.3567	254.0000
90.3761	265.0000
90.3956	257.0000
90.4150	277.0000
90.4345	297.0000
90.4540	264.0000
90.4734	242.0000
90.4929	292.0000
90.5123	268.0000
90.5318	314.0000
90.5512	279.0000
90.5707	257.0000
90.5902	256.0000
90.6096	296.0000
90.6291	307.0000
90.6485	298.0000
90.6680	308.0000
90.6874	300.0000
90.7069	274.0000
90.7264	357.0000
90.7458	309.0000
90.7653	338.0000
90.7847	341.0000
90.8042	373.0000
90.8236	394.0000
90.8431	388.0000
90.8626	399.0000
90.8820	369.0000
90.9015	405.0000
90.9209	416.0000
90.9404	437.0000
90.9598	438.0000
90.9793	478.0000
90.9988	473.0000
91.0182	452.0000
91.0377	482.0000
91.0571	469.0000
91.0766	475.0000
91.0960	450.0000
91.1155	454.0000
91.1350	451.0000
91.1544	450.0000
91.1739	466.0000
91.1933	398.0000
91.2128	437.0000
91.2322	436.0000
91.2517	456.0000
91.2712	405.0000
91.2906	431.0000
91.3101	427.0000
91.3295	401.0000
91.3490	400.0000
91.3684	400.0000
91.3879	391.0000
91.4074	370.0000
91.4268	373.0000
91.4463	389.0000
91.4657	331.0000
91.4852	345.0000
91.5046	329.0000
91.5241	336.0000
91.5436	334.0000
91.5630	321.0000
91.5825	308.0000
91.6019	271.0000
91.6214	296.0000
91.6408	294.0000
91.6603	257.0000
91.6798	292.0000
91.6992	296.0000
91.7187	269.0000
91.7381	246.0000
91.7576	262.0000
91.7770	299.0000
91.7965	262.0000
91.8160	271.0000
91.8354	256.0000
91.8549	275.0000
91.8743	288.0000
91.8938	276.0000
91.9132	278.0000
91.9327	252.0000
91.9521	233.0000
91.9716	228.0000
91.9911	241.0000
92.0105	246.0000
92.0300	258.0000
92.0494	262.0000
92.0689	249.0000
92.0883	265.0000
92.1078	277.0000
92.1273	241.0000
92.1467	261.0000
92.1662	212.0000
92.1856	244.0000
92.2051	247.0000
92.2245	255.0000
92.2440	227.0000
92.2635	259.0000
92.2829	246.0000
92.3024	240.0000
92.3218	244.0000
92.3413	233.0000
92.3607	254.0000
92.3802	230.0000
92.3997	241.0000
92.4191	247.0000
92.4386	210.0000
92.4580	241.0000
92.4775	224.0000
92.4969	245.0000
92.5164	226.0000
92.5359	243.0000
92.5553	217.0000
92.5748	244.0000
92.5942	246.0000
92.6137	240.0000
92.6331	241.0000
92.6526	233.0000
92.6721	238.0000
92.6915	233.0000
92.7110	257.0000
92.7304	254.0000
92.7499	250.0000
92.7693	218.0000
92.7888	224.0000
92.8083	225.0000
92.8277	240.0000
92.8472	231.0000
92.8666	230.0000
92.8861	276.0000
92.9055	211.0000
92.9250	253.0000
92.9445	241.0000
92.9639	244.0000
92.9834	237.0000
93.0028	224.0000
93.0223	228.0000
93.0417	213.0000
93.0612	252.0000
93.0807	256.0000
93.1001	263.0000
93.1196	234.0000
93.1390	246.0000
93.1585	224.0000
93.1779	244.0000
93.1974	228.0000
93.2169	252.0000
93.2363	226.0000
93.2558	226.0000
93.2752	244.0000
93.2947	225.0000
93.3141	255.0000
93.3336	210.0000
93.3531	227.0000
93.3725	246.0000
93.3920	225.0000
93.4114	231.0000
93.4309	239.0000
93.4503	260.0000
93.4698	217.0000
93.4893	243.0000
93.5087	231.0000
93.5282	246.0000
93.5476	256.0000
93.5671	218.0000
93.5865	254.0000
93.6060	234.0000
93.6255	258.0000
93.6449	240.0000
93.6644	224.0000
93.6838	264.0000
93.7033	233.0000
93.7227	219.0000
93.7422	257.0000
93.7617	259.0000
93.7811	245.0000
93.8006	225.0000
93.8200	246.0000
93.8395	260.0000
93.8589	241.0000
93.8784	240.0000
93.8979	234.0000
93.9173	231.0000
93.9368	233.0000
93.9562	222.0000
93.9757	248.0000
93.9951	231.0000
94.0146	252.0000
94.0341	218.0000
94.0535	231.0000
94.0730	256.0000
94.0924	244.0000
94.1119	229.0000
94.1313	268.0000
94.1508	244.0000
94.1703	223.0000
94.1897	247.0000
94.2092	245.0000
94.2286	255.0000
94.2481	235.0000
94.2675	229.0000
94.2870	227.0000
94.3065	250.0000
94.3259	255.0000
94.3454	238.0000
94.3648	244.0000
94.3843	242.0000
94.4037	219.0000
94.4232	256.0000
94.4427	260.0000
94.4621	222.0000
94.4816	252.0000
94.5010	250.0000
94.5205	242.0000
94.5399	270.0000
94.5594	270.0000
94.5789	232.0000
94.5983	252.0000
94.6178	210.0000
94.6372	267.0000
94.6567	253.0000
94.6761	238.0000
94.6956	251.0000
94.7150	266.0000
94.7345	253.0000
94.7540	258.0000
94.7734	214.0000
94.7929	241.0000
94.8123	243.0000
94.8318	255.0000
94.8512	241.0000
94.8707	235.0000
94.8902	233.0000
94.9096	244.0000
94.9291	259.0000
94.9485	241.0000
94.9680	221.0000
94.9874	226.0000
95.0069	259.0000
95.0264	243.0000
95.0458	245.0000
95.0653	272.0000
95.0847	261.0000
95.1042	245.0000
95.1236	242.0000
95.1431	262.0000
95.1626	216.0000
95.1820	233.0000
95.2015	227.0000
95.2209	242.0000
95.2404	238.0000
95.2598	213.0000
95.2793	220.0000
95.2988	237.0000
95.3182	241.0000
95.3377	263.0000
95.3571	223.0000
95.3766	247.0000
95.3960	243.0000
95.4155	208.0000
95.4350	211.0000
95.4544	262.0000
95.4739	226.0000
95.4933	228.0000
95.5128	240.0000
95.5322	251.0000
95.5517	227.0000
95.5712	226.0000
95.5906	244.0000
95.6101	230.0000
95.6295	237.0000
95.6490	252.0000
95.6684	215.0000
95.6879	219.0000
95.7074	224.0000
95.7268	234.0000
95.7463	241.0000
95.7657	256.0000
95.7852	209.0000
95.8046	258.0000
95.8241	248.0000
95.8436	241.0000
95.8630	258.0000
95.8825	249.0000
95.9019	247.0000
95.9214	233.0000
95.9408	253.0000
95.9603	228.0000
95.9798	220.0000
95.9992	249.0000
96.0187	265.0000
96.0381	237.0000
96.0576	245.0000
96.0770	263.0000
96.0965	245.0000
96.1160	247.0000
96.1354	282.0000
96.1549	242.0000
96.1743	257.0000
96.1938	230.0000
96.2132	264.0000
96.2327	240.0000
96.2522	241.0000
96.2716	238.0000
96.2911	233.0000
96.3105	225.0000
96.3300	256.0000
96.3494	246.0000
96.3689	272.0000
96.3884	260.0000
96.4078	240.0000
96.4273	228.0000
96.4467	266.0000
96.4662	260.0000
96.4856	233.0000
96.5051	274.0000
96.5246	279.0000
96.5440	266.0000
96.5635	272.0000
96.5829	252.0000
96.6024	269.0000
96.6218	229.0000
96.6413	227.0000
96.6608	250.0000
96.6802	266.0000
96.6997	259.0000
96.7191	261.0000
96.7386	227.0000
96.7580	259.0000
96.7775	259.0000
96.7970	260.0000
96.8164	240.0000
96.8359	257.0000
96.8553	241.0000
96.8748	258.0000
96.8942	246.0000
96.9137	269.0000
96.9332	226.0000
96.9526	277.0000
96.9721	266.0000
96.9915	247.0000
97.0110	232.0000
97.0304	228.0000
97.0499	253.0000
97.0694	258.0000
97.0888	259.0000
97.1083	248.0000
97.1277	267.0000
97.1472	242.0000
97.1666	206.0000
97.1861	254.0000
97.2056	234.0000
97.2250	268.0000
97.2445	248.0000
97.2639	229.0000
97.2834	232.0000
97.3028	207.0000
97.3223	254.0000
97.3418	273.0000
97.3612	225.0000
97.3807	257.0000
97.4001	234.0000
97.4196	245.0000
97.4390	220.0000
97.4585	225.0000
97.4780	233.0000
97.4974	211.0000
97.5169	225.0000
97.5363	259.0000
97.5558	235.0000
97.5752	239.0000
97.5947	222.0000
97.6141	249.0000
97.6336	244.0000
97.6531	227.0000
97.6725	248.0000
97.6920	226.0000
97.7114	255.0000
97.7309	257.0000
97.7503	229.0000
97.7698	230.0000
97.7893	241.0000
97.8087	226.0000
97.8282	219.0000
97.8476	224.0000
97.8671	220.0000
97.8865	215.0000
97.9060	225.0000
97.9255	238.0000
97.9449	223.0000
97.9644	237.0000
97.9838	231.0000
98.0033	225.0000
98.0227	237.0000
98.0422	222.0000
98.0617	239.0000
98.0811	215.0000
98.1006	233.0000
98.1200	213.0000
98.1395	223.0000
98.1589	241.0000
98.1784	230.0000
98.1979	232.0000
98.2173	216.0000
98.2368	216.0000
98.2562	234.0000
98.2757	234.0000
98.2951	205.0000
98.3146	238.0000
98.3341	241.0000
98.3535	224.0000
98.3730	226.0000
98.3924	230.0000
98.4119	236.0000
98.4313	221.0000
98.4508	231.0000
98.4703	216.0000
98.4897	241.0000
98.5092	241.0000
98.5286	218.0000
98.5481	275.0000
98.5675	229.0000
98.5870	252.0000
98.6065	220.0000
98.6259	257.0000
98.6454	219.0000
98.6648	272.0000
98.6843	233.0000
98.7037	250.0000
98.7232	247.0000
98.7427	254.0000
98.7621	240.0000
98.7816	270.0000
98.8010	237.0000
98.8205	247.0000
98.8399	253.0000
98.8594	230.0000
98.8789	220.0000
98.8983	231.0000
98.9178	235.0000
98.9372	229.0000
98.9567	237.0000
98.9761	212.0000
98.9956	235.0000
99.0151	246.0000
99.0345	242.0000
99.0540	221.0000
99.0734	230.0000
99.0929	226.0000
99.1123	238.0000
99.1318	240.0000
99.1513	240.0000
99.1707	242.0000
99.1902	246.0000
99.2096	249.0000
99.2291	200.0000
99.2485	243.0000
99.2680	275.0000
99.2875	235.0000
99.3069	269.0000
99.3264	231.0000
99.3458	203.0000
99.3653	256.0000
99.3847	229.0000
99.4042	210.0000
99.4237	243.0000
99.4431	238.0000
99.4626	225.0000
99.4820	213.0000
99.5015	236.0000
99.5209	197.0000
99.5404	210.0000
99.5599	244.0000
99.5793	215.0000
99.5988	229.0000
99.6182	218.0000
99.6377	217.0000
99.6571	241.0000
99.6766	250.0000
99.6961	224.0000
99.7155	218.0000
99.7350	249.0000
99.7544	239.0000
99.7739	230.0000
99.7933	204.0000
99.8128	224.0000
99.8323	212.0000
99.8517	232.0000
99.8712	251.0000
99.8906	231.0000
99.9101	234.0000
99.9295	230.0000
99.9490	236.0000
99.9685	248.0000
99.9879	210.0000
100.0074	227.0000
