30.0009	190.0000
30.0204	176.0000
30.0398	193.0000
30.0593	207.0000
30.0787	184.0000
30.0982	184.0000
30.1177	198.0000
30.1371	194.0000
30.1566	185.0000
30.1760	193.0000
30.1955	206.0000
30.2149	205.0000
30.2344	195.0000
30.2539	196.0000
30.2733	204.0000
30.2928	198.0000
30.3122	192.0000
30.3317	180.0000
30.3511	186.0000
30.3706	213.0000
30.3901	216.0000
30.4095	191.0000
30.4290	194.0000
30.4484	210.0000
30.4679	192.0000
30.4873	225.0000
30.5068	189.0000
30.5263	199.0000
30.5457	191.0000
30.5652	192.0000
30.5846	216.0000
30.6041	199.0000
30.6235	194.0000
30.6430	171.0000
30.6625	215.0000
30.6819	184.0000
30.7014	181.0000
30.7208	188.0000
30.7403	200.0000
30.7597	203.0000
30.7792	164.0000
30.7987	189.0000
30.8181	199.0000
30.8376	179.0000
30.8570	203.0000
30.8765	189.0000
30.8959	171.0000
30.9154	180.0000
30.9349	186.0000
30.9543	167.0000
30.9738	189.0000
30.9932	183.0000
31.0127	181.0000
31.0321	179.0000
31.0516	180.0000
31.0711	204.0000
31.0905	179.0000
31.1100	178.0000
31.1294	190.0000
31.1489	191.0000
31.1683	175.0000
31.1878	186.0000
31.2073	176.0000
31.2267	189.0000
31.2462	183.0000
31.2656	170.0000
31.2851	187.0000
31.3045	177.0000
31.3240	183.0000
31.3435	211.0000
31.3629	184.0000
31.3824	172.0000
31.4018	209.0000
31.4213	178.0000
31.4407	187.0000
31.4602	175.0000
31.4797	192.0000
31.4991	166.0000
31.5186	194.0000
31.5380	172.0000
31.5575	179.0000
31.5769	188.0000
31.5964	189.0000
31.6159	181.0000
31.6353	201.0000
31.6548	178.0000
31.6742	187.0000
31.6937	197.0000
31.7131	180.0000
31.7326	181.0000
31.7521	201.0000
31.7715	164.0000
31.7910	163.0000
31.8104	164.0000
31.8299	201.0000
31.8493	211.0000
31.8688	170.0000
31.8883	206.0000
31.9077	165.0000
31.9272	195.0000
31.9466	187.0000
31.9661	163.0000
31.9855	180.0000
32.0050	141.0000
32.0245	154.0000
32.0439	175.0000
32.0634	186.0000
32.0828	174.0000
32.1023	178.0000
32.1217	163.0000
32.1412	185.0000
32.1607	176.0000
32.1801	161.0000
32.1996	193.0000
32.2190	173.0000
32.2385	182.0000
32.2579	177.0000
32.2774	188.0000
32.2969	189.0000
32.3163	190.0000
32.3358	192.0000
32.3552	196.0000
32.3747	174.0000
32.3941	171.0000
32.4136	210.0000
32.4331	190.0000
32.4525	179.0000
32.4720	156.0000
32.4914	180.0000
32.5109	189.0000
32.5303	195.0000
32.5498	170.0000
32.5693	198.0000
32.5887	196.0000
32.6082	182.0000
32.6276	195.0000
32.6471	172.0000
32.6665	165.0000
32.6860	189.0000
32.7055	198.0000
32.7249	182.0000
32.7444	182.0000
32.7638	198.0000
32.7833	198.0000
32.8027	153.0000
32.8222	205.0000
32.8416	158.0000
32.8611	186.0000
32.8806	190.0000
32.9000	201.0000
32.9195	156.0000
32.9389	169.0000
32.9584	189.0000
32.9778	183.0000
32.9973	196.0000
33.0168	184.0000
33.0362	190.0000
33.0557	179.0000
33.0751	170.0000
33.0946	193.0000
33.1140	174.0000
33.1335	182.0000
33.1530	179.0000
33.1724	172.0000
33.1919	193.0000
33.2113	163.0000
33.2308	181.0000
33.2502	194.0000
33.2697	180.0000
33.2892	174.0000
33.3086	182.0000
33.3281	190.0000
33.3475	198.0000
33.3670	206.0000
33.3864	177.0000
33.4059	193.0000
33.4254	201.0000
33.4448	168.0000
33.4643	188.0000
33.4837	190.0000
33.5032	164.0000
33.5226	214.0000
33.5421	195.0000
33.5616	191.0000
33.5810	198.0000
33.6005	183.0000
33.6199	201.0000
33.6394	177.0000
33.6588	189.0000
33.6783	160.0000
33.6978	177.0000
33.7172	165.0000
33.7367	191.0000
33.7561	195.0000
33.7756	172.0000
33.7950	194.0000
33.8145	174.0000
33.8340	191.0000
33.8534	163.0000
33.8729	174.0000
33.8923	180.0000
33.9118	165.0000
33.9312	187.0000
33.9507	180.0000
33.9702	185.0000
33.9896	184.0000
34.0091	194.0000
34.0285	188.0000
34.0480	193.0000
34.0674	164.0000
34.0869	183.0000
34.1064	181.0000
34.1258	185.0000
34.1453	167.0000
34.1647	203.0000
34.1842	178.0000
34.2036	175.0000
34.2231	186.0000
34.2426	196.0000
34.2620	181.0000
34.2815	191.0000
34.3009	204.0000
34.3204	194.0000
34.3398	193.0000
34.3593	187.0000
34.3788	185.0000
34.3982	192.0000
34.4177	176.0000
34.4371	187.0000
34.4566	183.0000
34.4760	198.0000
34.4955	179.0000
34.5150	200.0000
34.5344	200.0000
34.5539	192.0000
34.5733	193.0000
34.5928	186.0000
34.6122	191.0000
34.6317	186.0000
34.6512	173.0000
34.6706	187.0000
34.6901	173.0000
34.7095	183.0000
34.7290	187.0000
34.7484	205.0000
34.7679	199.0000
34.7874	171.0000
34.8068	207.0000
34.8263	171.0000
34.8457	192.0000
34.8652	205.0000
34.8846	179.0000
34.9041	194.0000
34.9236	184.0000
34.9430	189.0000
34.9625	187.0000
34.9819	190.0000
35.0014	185.0000
35.0208	217.0000
35.0403	193.0000
35.0598	180.0000
35.0792	199.0000
35.0987	206.0000
35.1181	185.0000
35.1376	192.0000
35.1570	204.0000
35.1765	182.0000
35.1960	168.0000
35.2154	200.0000
35.2349	185.0000
35.2543	204.0000
35.2738	190.0000
35.2932	190.0000
35.3127	191.0000
35.3322	190.0000
35.3516	198.0000
35.3711	186.0000
35.3905	182.0000
35.4100	174.0000
35.4294	175.0000
35.4489	196.0000
35.4684	199.0000
35.4878	209.0000
35.5073	203.0000
35.5267	212.0000
35.5462	197.0000
35.5656	204.0000
35.5851	213.0000
35.6045	194.0000
35.6240	199.0000
35.6435	203.0000
35.6629	184.0000
35.6824	183.0000
35.7018	188.0000
35.7213	182.0000
35.7407	193.0000
35.7602	184.0000
35.7797	199.0000
35.7991	179.0000
35.8186	196.0000
35.8380	162.0000
35.8575	167.0000
35.8769	203.0000
35.8964	213.0000
35.9159	180.0000
35.9353	181.0000
35.9548	205.0000
35.9742	194.0000
35.9937	187.0000
36.0131	190.0000
36.0326	170.0000
36.0521	176.0000
36.0715	182.0000
36.0910	171.0000
36.1104	191.0000
36.1299	195.0000
36.1493	189.0000
36.1688	190.0000
36.1883	177.0000
36.2077	178.0000
36.2272	185.0000
36.2466	185.0000
36.2661	176.0000
36.2855	177.0000
36.3050	186.0000
36.3245	177.0000
36.3439	185.0000
36.3634	215.0000
36.3828	209.0000
36.4023	185.0000
36.4217	184.0000
36.4412	171.0000
36.4607	192.0000
36.4801	190.0000
36.4996	156.0000
36.5190	228.0000
36.5385	191.0000
36.5579	200.0000
36.5774	167.0000
36.5969	186.0000
36.6163	190.0000
36.6358	166.0000
36.6552	200.0000
36.6747	211.0000
36.6941	177.0000
36.7136	184.0000
36.7331	197.0000
36.7525	178.0000
36.7720	205.0000
36.7914	191.0000
36.8109	192.0000
36.8303	216.0000
36.8498	163.0000
36.8693	192.0000
36.8887	185.0000
36.9082	195.0000
36.9276	218.0000
36.9471	198.0000
36.9665	189.0000
36.9860	191.0000
37.0055	206.0000
37.0249	183.0000
37.0444	185.0000
37.0638	186.0000
37.0833	202.0000
37.1027	190.0000
37.1222	198.0000
37.1417	173.0000
37.1611	165.0000
37.1806	190.0000
37.2000	183.0000
37.2195	214.0000
37.2389	199.0000
37.2584	209.0000
37.2779	168.0000
37.2973	176.0000
37.3168	193.0000
37.3362	186.0000
37.3557	193.0000
37.3751	210.0000
37.3946	195.0000
37.4141	179.0000
37.4335	158.0000
37.4530	196.0000
37.4724	182.0000
37.4919	206.0000
37.5113	165.0000
37.5308	188.0000
37.5503	198.0000
37.5697	183.0000
37.5892	196.0000
37.6086	186.0000
37.6281	179.0000
37.6475	192.0000
37.6670	203.0000
37.6865	184.0000
37.7059	203.0000
37.7254	192.0000
37.7448	194.0000
37.7643	214.0000
37.7837	178.0000
37.8032	214.0000
37.8227	197.0000
37.8421	186.0000
37.8616	196.0000
37.8810	208.0000
37.9005	186.0000
37.9199	216.0000
37.9394	200.0000
37.9589	197.0000
37.9783	208.0000
37.9978	169.0000
38.0172	185.0000
38.0367	176.0000
38.0561	187.0000
38.0756	180.0000
38.0951	192.0000
38.1145	225.0000
38.1340	188.0000
38.1534	236.0000
38.1729	203.0000
38.1923	191.0000
38.2118	184.0000
38.2313	172.0000
38.2507	200.0000
38.2702	200.0000
38.2896	186.0000
38.3091	201.0000
38.3285	202.0000
38.3480	197.0000
38.3675	202.0000
38.3869	181.0000
38.4064	192.0000
38.4258	187.0000
38.4453	183.0000
38.4647	194.0000
38.4842	210.0000
38.5036	207.0000
38.5231	199.0000
38.5426	199.0000
38.5620	211.0000
38.5815	200.0000
38.6009	181.0000
38.6204	199.0000
38.6398	187.0000
38.6593	214.0000
38.6788	189.0000
38.6982	214.0000
38.7177	182.0000
38.7371	190.0000
38.7566	182.0000
38.7760	204.0000
38.7955	209.0000
38.8150	192.0000
38.8344	207.0000
38.8539	225.0000
38.8733	188.0000
38.8928	199.0000
38.9122	195.0000
38.9317	200.0000
38.9512	233.0000
38.9706	220.0000
38.9901	212.0000
39.0095	193.0000
39.0290	218.0000
39.0484	225.0000
39.0679	193.0000
39.0874	179.0000
39.1068	215.0000
39.1263	193.0000
39.1457	200.0000
39.1652	187.0000
39.1846	196.0000
39.2041	196.0000
39.2236	193.0000
39.2430	199.0000
39.2625	186.0000
39.2819	186.0000
39.3014	215.0000
39.3208	204.0000
39.3403	191.0000
39.3598	179.0000
39.3792	179.0000
39.3987	188.0000
39.4181	194.0000
39.4376	155.0000
39.4570	190.0000
39.4765	173.0000
39.4960	162.0000
39.5154	180.0000
39.5349	199.0000
39.5543	186.0000
39.5738	185.0000
39.5932	191.0000
39.6127	200.0000
39.6322	177.0000
39.6516	182.0000
39.6711	207.0000
39.6905	218.0000
39.7100	187.0000
39.7294	171.0000
39.7489	166.0000
39.7684	200.0000
39.7878	158.0000
39.8073	199.0000
39.8267	203.0000
39.8462	200.0000
39.8656	190.0000
39.8851	205.0000
39.9046	214.0000
39.9240	214.0000
39.9435	200.0000
39.9629	208.0000
39.9824	193.0000
40.0018	197.0000
40.0213	173.0000
40.0408	201.0000
40.0602	186.0000
40.0797	179.0000
40.0991	205.0000
40.1186	204.0000
40.1380	205.0000
40.1575	205.0000
40.1770	191.0000
40.1964	205.0000
40.2159	179.0000
40.2353	198.0000
40.2548	179.0000
40.2742	208.0000
40.2937	203.0000
40.3132	202.0000
40.3326	181.0000
40.3521	189.0000
40.3715	172.0000
40.3910	182.0000
40.4104	188.0000
40.4299	218.0000
40.4494	171.0000
40.4688	189.0000
40.4883	193.0000
40.5077	210.0000
40.5272	188.0000
40.5466	195.0000
40.5661	185.0000
40.5856	178.0000
40.6050	194.0000
40.6245	214.0000
40.6439	172.0000
40.6634	215.0000
40.6828	194.0000
40.7023	185.0000
40.7218	200.0000
40.7412	191.0000
40.7607	233.0000
40.7801	188.0000
40.7996	193.0000
40.8190	196.0000
40.8385	215.0000
40.8580	177.0000
40.8774	187.0000
40.8969	178.0000
40.9163	199.0000
40.9358	177.0000
40.9552	195.0000
40.9747	196.0000
40.9942	211.0000
41.0136	203.0000
41.0331	174.0000
41.0525	177.0000
41.0720	216.0000
41.0914	202.0000
41.1109	196.0000
41.1304	199.0000
41.1498	208.0000
41.1693	213.0000
41.1887	179.0000
41.2082	175.0000
41.2276	213.0000
41.2471	180.0000
41.2665	203.0000
41.2860	193.0000
41.3055	200.0000
41.3249	206.0000
41.3444	191.0000
41.3638	197.0000
41.3833	205.0000
41.4027	168.0000
41.4222	207.0000
41.4417	179.0000
41.4611	197.0000
41.4806	192.0000
41.5000	180.0000
41.5195	205.0000
41.5389	168.0000
41.5584	193.0000
41.5779	192.0000
41.5973	204.0000
41.6168	208.0000
41.6362	198.0000
41.6557	191.0000
41.6751	210.0000
41.6946	206.0000
41.7141	175.0000
41.7335	198.0000
41.7530	227.0000
41.7724	192.0000
41.7919	185.0000
41.8113	207.0000
41.8308	226.0000
41.8503	202.0000
41.8697	215.0000
41.8892	219.0000
41.9086	222.0000
41.9281	200.0000
41.9475	197.0000
41.9670	192.0000
41.9865	195.0000
42.0059	176.0000
42.0254	207.0000
42.0448	204.0000
42.0643	212.0000
42.0837	183.0000
42.1032	214.0000
42.1227	208.0000
42.1421	180.0000
42.1616	208.0000
42.1810	180.0000
42.2005	205.0000
42.2199	223.0000
42.2394	211.0000
42.2589	203.0000
42.2783	226.0000
42.2978	216.0000
42.3172	212.0000
42.3367	208.0000
42.3561	207.0000
42.3756	221.0000
42.3951	224.0000
42.4145	237.0000
42.4340	208.0000
42.4534	193.0000
42.4729	205.0000
42.4923	209.0000
42.5118	256.0000
42.5313	208.0000
42.5507	213.0000
42.5702	237.0000
42.5896	235.0000
42.6091	250.0000
42.6285	208.0000
42.6480	221.0000
42.6675	233.0000
42.6869	214.0000
42.7064	243.0000
42.7258	245.0000
42.7453	212.0000
42.7647	260.0000
42.7842	234.0000
42.8037	239.0000
42.8231	225.0000
42.8426	227.0000
42.8620	209.0000
42.8815	227.0000
42.9009	231.0000
42.9204	229.0000
42.9399	221.0000
42.9593	228.0000
42.9788	248.0000
42.9982	221.0000
43.0177	217.0000
43.0371	261.0000
43.0566	231.0000
43.0761	204.0000
43.0955	247.0000
43.1150	215.0000
43.1344	253.0000
43.1539	274.0000
43.1733	244.0000
43.1928	243.0000
43.2123	247.0000
43.2317	278.0000
43.2512	263.0000
43.2706	271.0000
43.2901	306.0000
43.3095	308.0000
43.3290	302.0000
43.3485	339.0000
43.3679	314.0000
43.3874	330.0000
43.4068	371.0000
43.4263	338.0000
43.4457	396.0000
43.4652	409.0000
43.4847	435.0000
43.5041	437.0000
43.5236	468.0000
43.5430	519.0000
43.5625	563.0000
43.5819	572.0000
43.6014	583.0000
43.6209	617.0000
43.6403	674.0000
43.6598	655.0000
43.6792	700.0000
43.6987	706.0000
43.7181	780.0000
43.7376	708.0000
43.7571	754.0000
43.7765	730.0000
43.7960	702.0000
43.8154	674.0000
43.8349	646.0000
43.8543	671.0000
43.8738	622.0000
43.8933	579.0000
43.9127	562.0000
43.9322	540.0000
43.9516	498.0000
43.9711	448.0000
43.9905	485.0000
44.0100	404.0000
44.0295	388.0000
44.0489	367.0000
44.0684	381.0000
44.0878	349.0000
44.1073	348.0000
44.1267	330.0000
44.1462	317.0000
44.1656	325.0000
44.1851	302.0000
44.2046	312.0000
44.2240	269.0000
44.2435	281.0000
44.2629	295.0000
44.2824	271.0000
44.3018	272.0000
44.3213	298.0000
44.3408	239.0000
44.3602	260.0000
44.3797	278.0000
44.3991	247.0000
44.4186	218.0000
44.4380	265.0000
44.4575	248.0000
44.4770	231.0000
44.4964	246.0000
44.5159	208.0000
44.5353	243.0000
44.5548	224.0000
44.5742	228.0000
44.5937	213.0000
44.6132	229.0000
44.6326	214.0000
44.6521	200.0000
44.6715	210.0000
44.6910	240.0000
44.7104	231.0000
44.7299	244.0000
44.7494	231.0000
44.7688	212.0000
44.7883	224.0000
44.8077	232.0000
44.8272	228.0000
44.8466	221.0000
44.8661	238.0000
44.8856	205.0000
44.9050	188.0000
44.9245	201.0000
44.9439	179.0000
44.9634	220.0000
44.9828	210.0000
45.0023	223.0000
45.0218	208.0000
45.0412	216.0000
45.0607	195.0000
45.0801	182.0000
45.0996	184.0000
45.1190	222.0000
45.1385	211.0000
45.1580	247.0000
45.1774	201.0000
45.1969	193.0000
45.2163	228.0000
45.2358	240.0000
45.2552	224.0000
45.2747	227.0000
45.2942	186.0000
45.3136	207.0000
45.3331	221.0000
45.3525	229.0000
45.3720	210.0000
45.3914	185.0000
45.4109	187.0000
45.4304	191.0000
45.4498	193.0000
45.4693	203.0000
45.4887	207.0000
45.5082	201.0000
45.5276	196.0000
45.5471	199.0000
45.5666	204.0000
45.5860	231.0000
45.6055	186.0000
45.6249	230.0000
45.6444	193.0000
45.6638	211.0000
45.6833	222.0000
45.7028	166.0000
45.7222	201.0000
45.7417	186.0000
45.7611	204.0000
45.7806	196.0000
45.8000	208.0000
45.8195	199.0000
45.8390	206.0000
45.8584	197.0000
45.8779	222.0000
45.8973	201.0000
45.9168	198.0000
45.9362	184.0000
45.9557	193.0000
45.9752	208.0000
45.9946	195.0000
46.0141	190.0000
46.0335	219.0000
46.0530	159.0000
46.0724	215.0000
46.0919	218.0000
46.1114	192.0000
46.1308	197.0000
46.1503	191.0000
46.1697	207.0000
46.1892	192.0000
46.2086	196.0000
46.2281	220.0000
46.2476	194.0000
46.2670	209.0000
46.2865	188.0000
46.3059	200.0000
46.3254	233.0000
46.3448	211.0000
46.3643	195.0000
46.3838	196.0000
46.4032	190.0000
46.4227	189.0000
46.4421	210.0000
46.4616	227.0000
46.4810	199.0000
46.5005	208.0000
46.5200	181.0000
46.5394	203.0000
46.5589	207.0000
46.5783	225.0000
46.5978	231.0000
46.6172	222.0000
46.6367	226.0000
46.6562	201.0000
46.6756	223.0000
46.6951	238.0000
46.7145	215.0000
46.7340	227.0000
46.7534	203.0000
46.7729	233.0000
46.7924	223.0000
46.8118	221.0000
46.8313	234.0000
46.8507	197.0000
46.8702	214.0000
46.8896	248.0000
46.9091	220.0000
46.9285	227.0000
46.9480	238.0000
46.9675	214.0000
46.9869	234.0000
47.0064	240.0000
47.0258	207.0000
47.0453	247.0000
47.0647	214.0000
47.0842	246.0000
47.1037	238.0000
47.1231	247.0000
47.1426	224.0000
47.1620	230.0000
47.1815	201.0000
47.2009	235.0000
47.2204	218.0000
47.2399	201.0000
47.2593	208.0000
47.2788	207.0000
47.2982	209.0000
47.3177	215.0000
47.3371	201.0000
47.3566	215.0000
47.3761	209.0000
47.3955	193.0000
47.4150	217.0000
47.4344	199.0000
47.4539	174.0000
47.4733	202.0000
47.4928	204.0000
47.5123	206.0000
47.5317	182.0000
47.5512	206.0000
47.5706	227.0000
47.5901	226.0000
47.6095	212.0000
47.6290	209.0000
47.6485	188.0000
47.6679	200.0000
47.6874	190.0000
47.7068	234.0000
47.7263	229.0000
47.7457	208.0000
47.7652	191.0000
47.7847	180.0000
47.8041	214.0000
47.8236	212.0000
47.8430	199.0000
47.8625	220.0000
47.8819	205.0000
47.9014	212.0000
47.9209	247.0000
47.9403	210.0000
47.9598	212.0000
47.9792	223.0000
47.9987	233.0000
48.0181	234.0000
48.0376	241.0000
48.0571	200.0000
48.0765	232.0000
48.0960	238.0000
48.1154	254.0000
48.1349	224.0000
48.1543	226.0000
48.1738	214.0000
48.1933	218.0000
48.2127	217.0000
48.2322	217.0000
48.2516	224.0000
48.2711	228.0000
48.2905	202.0000
48.3100	205.0000
48.3295	200.0000
48.3489	187.0000
48.3684	172.0000
48.3878	179.0000
48.4073	218.0000
48.4267	230.0000
48.4462	188.0000
48.4657	188.0000
48.4851	210.0000
48.5046	206.0000
48.5240	207.0000
48.5435	201.0000
48.5629	210.0000
48.5824	203.0000
48.6019	199.0000
48.6213	212.0000
48.6408	215.0000
48.6602	211.0000
48.6797	198.0000
48.6991	192.0000
48.7186	211.0000
48.7381	224.0000
48.7575	201.0000
48.7770	202.0000
48.7964	181.0000
48.8159	213.0000
48.8353	183.0000
48.8548	210.0000
48.8743	219.0000
48.8937	225.0000
48.9132	233.0000
48.9326	210.0000
48.9521	226.0000
48.9715	201.0000
48.9910	199.0000
49.0105	205.0000
49.0299	211.0000
49.0494	236.0000
49.0688	214.0000
49.0883	220.0000
49.1077	209.0000
49.1272	211.0000
49.1467	219.0000
49.1661	192.0000
49.1856	206.0000
49.2050	235.0000
49.2245	214.0000
49.2439	217.0000
49.2634	222.0000
49.2829	230.0000
49.3023	191.0000
49.3218	260.0000
49.3412	232.0000
49.3607	215.0000
49.3801	241.0000
49.3996	212.0000
49.4191	235.0000
49.4385	199.0000
49.4580	213.0000
49.4774	228.0000
49.4969	258.0000
49.5163	218.0000
49.5358	221.0000
49.5553	207.0000
49.5747	237.0000
49.5942	228.0000
49.6136	248.0000
49.6331	249.0000
49.6525	213.0000
49.6720	215.0000
49.6914	241.0000
49.7109	225.0000
49.7304	256.0000
49.7498	242.0000
49.7693	245.0000
49.7887	237.0000
49.8082	214.0000
49.8276	253.0000
49.8471	245.0000
49.8666	282.0000
49.8860	223.0000
49.9055	273.0000
49.9249	249.0000
49.9444	285.0000
49.9638	257.0000
49.9833	252.0000
50.0028	264.0000
50.0222	278.0000
50.0417	266.0000
50.0611	283.0000
50.0806	256.0000
50.1000	278.0000
50.1195	300.0000
50.1390	278.0000
50.1584	298.0000
50.1779	304.0000
50.1973	313.0000
50.2168	319.0000
50.2362	306.0000
50.2557	312.0000
50.2752	346.0000
50.2946	370.0000
50.3141	377.0000
50.3335	370.0000
50.3530	429.0000
50.3724	423.0000
50.3919	449.0000
50.4114	451.0000
50.4308	483.0000
50.4503	492.0000
50.4697	546.0000
50.4892	596.0000
50.5086	629.0000
50.5281	724.0000
50.5476	776.0000
50.5670	865.0000
50.5865	964.0000
50.6059	986.0000
50.6254	1139.0000
50.6448	1197.0000
50.6643	1253.0000
50.6838	1271.0000
50.7032	1481.0000
50.7227	1569.0000
50.7421	1577.0000
50.7616	1581.0000
50.7810	1620.0000
50.8005	1614.0000
50.8200	1577.0000
50.8394	1617.0000
50.8589	1530.0000
50.8783	1488.0000
50.8978	1403.0000
50.9172	1317.0000
50.9367	1232.0000
50.9562	1157.0000
50.9756	1105.0000
50.9951	1001.0000
51.0145	997.0000
51.0340	871.0000
51.0534	797.0000
51.0729	739.0000
51.0924	649.0000
51.1118	617.0000
51.1313	560.0000
51.1507	505.0000
51.1702	524.0000
51.1896	454.0000
51.2091	405.0000
51.2286	407.0000
51.2480	373.0000
51.2675	360.0000
51.2869	383.0000
51.3064	355.0000
51.3258	329.0000
51.3453	298.0000
51.3648	319.0000
51.3842	280.0000
51.4037	313.0000
51.4231	315.0000
51.4426	302.0000
51.4620	290.0000
51.4815	275.0000
51.5010	284.0000
51.5204	275.0000
51.5399	289.0000
51.5593	258.0000
51.5788	226.0000
51.5982	269.0000
51.6177	244.0000
51.6372	234.0000
51.6566	244.0000
51.6761	236.0000
51.6955	236.0000
51.7150	234.0000
51.7344	226.0000
51.7539	234.0000
51.7734	217.0000
51.7928	229.0000
51.8123	229.0000
51.8317	213.0000
51.8512	246.0000
51.8706	216.0000
51.8901	199.0000
51.9096	235.0000
51.9290	217.0000
51.9485	216.0000
51.9679	207.0000
51.9874	212.0000
52.0068	215.0000
52.0263	207.0000
52.0458	215.0000
52.0652	236.0000
52.0847	218.0000
52.1041	198.0000
52.1236	219.0000
52.1430	213.0000
52.1625	227.0000
52.1820	211.0000
52.2014	214.0000
52.2209	201.0000
52.2403	206.0000
52.2598	223.0000
52.2792	219.0000
52.2987	188.0000
52.3182	193.0000
52.3376	207.0000
52.3571	206.0000
52.3765	204.0000
52.3960	205.0000
52.4154	209.0000
52.4349	192.0000
52.4544	213.0000
52.4738	206.0000
52.4933	224.0000
52.5127	224.0000
52.5322	226.0000
52.5516	196.0000
52.5711	233.0000
52.5905	222.0000
52.6100	210.0000
52.6295	188.0000
52.6489	203.0000
52.6684	200.0000
52.6878	211.0000
52.7073	192.0000
52.7267	215.0000
52.7462	202.0000
52.7657	200.0000
52.7851	203.0000
52.8046	167.0000
52.8240	204.0000
52.8435	201.0000
52.8629	194.0000
52.8824	179.0000
52.9019	194.0000
52.9213	219.0000
52.9408	203.0000
52.9602	190.0000
52.9797	209.0000
52.9991	216.0000
53.0186	207.0000
53.0381	211.0000
53.0575	219.0000
53.0770	190.0000
53.0964	187.0000
53.1159	192.0000
53.1353	190.0000
53.1548	199.0000
53.1743	197.0000
53.1937	217.0000
53.2132	186.0000
53.2326	219.0000
53.2521	182.0000
53.2715	231.0000
53.2910	208.0000
53.3105	196.0000
53.3299	207.0000
53.3494	194.0000
53.3688	207.0000
53.3883	214.0000
53.4077	212.0000
53.4272	203.0000
53.4467	187.0000
53.4661	215.0000
53.4856	208.0000
53.5050	205.0000
53.5245	200.0000
53.5439	208.0000
53.5634	195.0000
53.5829	200.0000
53.6023	201.0000
53.6218	174.0000
53.6412	208.0000
53.6607	231.0000
53.6801	214.0000
53.6996	187.0000
53.7191	214.0000
53.7385	211.0000
53.7580	205.0000
53.7774	201.0000
53.7969	205.0000
53.8163	164.0000
53.8358	217.0000
53.8553	173.0000
53.8747	224.0000
53.8942	210.0000
53.9136	221.0000
53.9331	190.0000
53.9525	212.0000
53.9720	202.0000
53.9915	225.0000
54.0109	232.0000
54.0304	207.0000
54.0498	181.0000
54.0693	176.0000
54.0887	166.0000
54.1082	197.0000
54.1277	183.0000
54.1471	198.0000
54.1666	212.0000
54.1860	191.0000
54.2055	180.0000
54.2249	206.0000
54.2444	194.0000
54.2639	193.0000
54.2833	211.0000
54.3028	193.0000
54.3222	174.0000
54.3417	185.0000
54.3611	204.0000
54.3806	195.0000
54.4001	208.0000
54.4195	204.0000
54.4390	217.0000
54.4584	195.0000
54.4779	184.0000
54.4973	198.0000
54.5168	206.0000
54.5363	207.0000
54.5557	202.0000
54.5752	184.0000
54.5946	179.0000
54.6141	189.0000
54.6335	200.0000
54.6530	223.0000
54.6725	216.0000
54.6919	182.0000
54.7114	201.0000
54.7308	175.0000
54.7503	204.0000
54.7697	199.0000
54.7892	191.0000
54.8087	198.0000
54.8281	216.0000
54.8476	235.0000
54.8670	206.0000
54.8865	179.0000
54.9059	232.0000
54.9254	203.0000
54.9449	211.0000
54.9643	209.0000
54.9838	212.0000
55.0032	198.0000
55.0227	195.0000
55.0421	195.0000
55.0616	216.0000
55.0811	187.0000
55.1005	189.0000
55.1200	178.0000
55.1394	201.0000
55.1589	183.0000
55.1783	213.0000
55.1978	182.0000
55.2173	211.0000
55.2367	241.0000
55.2562	200.0000
55.2756	231.0000
55.2951	214.0000
55.3145	226.0000
55.3340	216.0000
55.3534	191.0000
55.3729	210.0000
55.3924	196.0000
55.4118	218.0000
55.4313	182.0000
55.4507	184.0000
55.4702	178.0000
55.4896	192.0000
55.5091	218.0000
55.5286	204.0000
55.5480	181.0000
55.5675	192.0000
55.5869	198.0000
55.6064	187.0000
55.6258	190.0000
55.6453	191.0000
55.6648	190.0000
55.6842	201.0000
55.7037	213.0000
55.7231	194.0000
55.7426	193.0000
55.7620	201.0000
55.7815	184.0000
55.8010	192.0000
55.8204	206.0000
55.8399	209.0000
55.8593	222.0000
55.8788	187.0000
55.8982	211.0000
55.9177	192.0000
55.9372	213.0000
55.9566	206.0000
55.9761	203.0000
55.9955	210.0000
56.0150	227.0000
56.0344	212.0000
56.0539	220.0000
56.0734	192.0000
56.0928	217.0000
56.1123	206.0000
56.1317	206.0000
56.1512	210.0000
56.1706	194.0000
56.1901	188.0000
56.2096	215.0000
56.2290	198.0000
56.2485	204.0000
56.2679	199.0000
56.2874	211.0000
56.3068	192.0000
56.3263	176.0000
56.3458	186.0000
56.3652	203.0000
56.3847	197.0000
56.4041	181.0000
56.4236	181.0000
56.4430	194.0000
56.4625	221.0000
56.4820	192.0000
56.5014	189.0000
56.5209	193.0000
56.5403	196.0000
56.5598	191.0000
56.5792	176.0000
56.5987	207.0000
56.6182	215.0000
56.6376	198.0000
56.6571	204.0000
56.6765	207.0000
56.6960	209.0000
56.7154	217.0000
56.7349	211.0000
56.7544	199.0000
56.7738	213.0000
56.7933	192.0000
56.8127	202.0000
56.8322	198.0000
56.8516	197.0000
56.8711	203.0000
56.8906	241.0000
56.9100	198.0000
56.9295	224.0000
56.9489	235.0000
56.9684	223.0000
56.9878	206.0000
57.0073	225.0000
57.0268	209.0000
57.0462	195.0000
57.0657	196.0000
57.0851	211.0000
57.1046	189.0000
57.1240	199.0000
57.1435	228.0000
57.1630	189.0000
57.1824	180.0000
57.2019	202.0000
57.2213	201.0000
57.2408	197.0000
57.2602	205.0000
57.2797	211.0000
57.2992	180.0000
57.3186	185.0000
57.3381	188.0000
57.3575	195.0000
57.3770	219.0000
57.3964	198.0000
57.4159	191.0000
57.4354	193.0000
57.4548	184.0000
57.4743	199.0000
57.4937	209.0000
57.5132	193.0000
57.5326	199.0000
57.5521	173.0000
57.5716	184.0000
57.5910	201.0000
57.6105	216.0000
57.6299	211.0000
57.6494	220.0000
57.6688	201.0000
57.6883	191.0000
57.7078	202.0000
57.7272	202.0000
57.7467	201.0000
57.7661	191.0000
57.7856	221.0000
57.8050	196.0000
57.8245	201.0000
57.8440	194.0000
57.8634	197.0000
57.8829	190.0000
57.9023	221.0000
57.9218	223.0000
57.9412	211.0000
57.9607	205.0000
57.9802	240.0000
57.9996	193.0000
58.0191	191.0000
58.0385	222.0000
58.0580	196.0000
58.0774	215.0000
58.0969	177.0000
58.1163	184.0000
58.1358	223.0000
58.1553	215.0000
58.1747	220.0000
58.1942	187.0000
58.2136	191.0000
58.2331	193.0000
58.2525	216.0000
58.2720	210.0000
58.2915	217.0000
58.3109	194.0000
58.3304	178.0000
58.3498	182.0000
58.3693	187.0000
58.3887	198.0000
58.4082	188.0000
58.4277	201.0000
58.4471	209.0000
58.4666	192.0000
58.4860	188.0000
58.5055	176.0000
58.5249	185.0000
58.5444	183.0000
58.5639	196.0000
58.5833	200.0000
58.6028	202.0000
58.6222	182.0000
58.6417	208.0000
58.6611	217.0000
58.6806	196.0000
58.7001	221.0000
58.7195	206.0000
58.7390	181.0000
58.7584	194.0000
58.7779	209.0000
58.7973	201.0000
58.8168	187.0000
58.8363	198.0000
58.8557	184.0000
58.8752	198.0000
58.8946	219.0000
58.9141	212.0000
58.9335	188.0000
58.9530	166.0000
58.9725	185.0000
58.9919	201.0000
59.0114	217.0000
59.0308	209.0000
59.0503	215.0000
59.0697	203.0000
59.0892	187.0000
59.1087	206.0000
59.1281	192.0000
59.1476	182.0000
59.1670	194.0000
59.1865	176.0000
59.2059	210.0000
59.2254	192.0000
59.2449	210.0000
59.2643	206.0000
59.2838	182.0000
59.3032	190.0000
59.3227	185.0000
59.3421	197.0000
59.3616	204.0000
59.3811	211.0000
59.4005	188.0000
59.4200	167.0000
59.4394	189.0000
59.4589	216.0000
59.4783	209.0000
59.4978	204.0000
59.5173	192.0000
59.5367	199.0000
59.5562	202.0000
59.5756	178.0000
59.5951	169.0000
59.6145	187.0000
59.6340	200.0000
59.6535	200.0000
59.6729	166.0000
59.6924	186.0000
59.7118	196.0000
59.7313	188.0000
59.7507	205.0000
59.7702	189.0000
59.7897	206.0000
59.8091	196.0000
59.8286	202.0000
59.8480	201.0000
59.8675	173.0000
59.8869	197.0000
59.9064	160.0000
59.9259	202.0000
59.9453	172.0000
59.9648	205.0000
59.9842	221.0000
60.0037	182.0000
60.0231	181.0000
60.0426	204.0000
60.0621	222.0000
60.0815	194.0000
60.1010	213.0000
60.1204	191.0000
60.1399	202.0000
60.1593	219.0000
60.1788	182.0000
60.1983	216.0000
60.2177	210.0000
60.2372	220.0000
60.2566	200.0000
60.2761	188.0000
60.2955	201.0000
60.3150	214.0000
60.3345	209.0000
60.3539	184.0000
60.3734	233.0000
60.3928	191.0000
60.4123	227.0000
60.4317	212.0000
60.4512	230.0000
60.4707	213.0000
60.4901	210.0000
60.5096	201.0000
60.5290	212.0000
60.5485	221.0000
60.5679	205.0000
60.5874	213.0000
60.6069	203.0000
60.6263	219.0000
60.6458	225.0000
60.6652	211.0000
60.6847	198.0000
60.7041	221.0000
60.7236	217.0000
60.7431	226.0000
60.7625	206.0000
60.7820	203.0000
60.8014	208.0000
60.8209	210.0000
60.8403	177.0000
60.8598	186.0000
60.8793	214.0000
60.8987	190.0000
60.9182	199.0000
60.9376	199.0000
60.9571	182.0000
60.9765	206.0000
60.9960	193.0000
61.0154	210.0000
61.0349	191.0000
61.0544	200.0000
61.0738	206.0000
61.0933	175.0000
61.1127	202.0000
61.1322	185.0000
61.1516	221.0000
61.1711	224.0000
61.1906	198.0000
61.2100	198.0000
61.2295	206.0000
61.2489	204.0000
61.2684	165.0000
61.2878	208.0000
61.3073	220.0000
61.3268	191.0000
61.3462	189.0000
61.3657	181.0000
61.3851	215.0000
61.4046	212.0000
61.4240	196.0000
61.4435	183.0000
61.4630	234.0000
61.4824	189.0000
61.5019	188.0000
61.5213	198.0000
61.5408	167.0000
61.5602	189.0000
61.5797	201.0000
61.5992	198.0000
61.6186	206.0000
61.6381	195.0000
61.6575	199.0000
61.6770	184.0000
61.6964	204.0000
61.7159	183.0000
61.7354	201.0000
61.7548	193.0000
61.7743	207.0000
61.7937	211.0000
61.8132	190.0000
61.8326	192.0000
61.8521	170.0000
61.8716	203.0000
61.8910	185.0000
61.9105	197.0000
61.9299	202.0000
61.9494	191.0000
61.9688	204.0000
61.9883	173.0000
62.0078	203.0000
62.0272	209.0000
62.0467	208.0000
62.0661	175.0000
62.0856	194.0000
62.1050	181.0000
62.1245	202.0000
62.1440	203.0000
62.1634	180.0000
62.1829	197.0000
62.2023	212.0000
62.2218	191.0000
62.2412	197.0000
62.2607	227.0000
62.2802	176.0000
62.2996	195.0000
62.3191	214.0000
62.3385	207.0000
62.3580	191.0000
62.3774	196.0000
62.3969	184.0000
62.4164	197.0000
62.4358	173.0000
62.4553	184.0000
62.4747	206.0000
62.4942	180.0000
62.5136	196.0000
62.5331	206.0000
62.5526	201.0000
62.5720	177.0000
62.5915	223.0000
62.6109	187.0000
62.6304	237.0000
62.6498	228.0000
62.6693	181.0000
62.6888	206.0000
62.7082	196.0000
62.7277	204.0000
62.7471	208.0000
62.7666	209.0000
62.7860	231.0000
62.8055	178.0000
62.8250	187.0000
62.8444	202.0000
62.8639	223.0000
62.8833	189.0000
62.9028	219.0000
62.9222	212.0000
62.9417	167.0000
62.9612	195.0000
62.9806	201.0000
63.0001	201.0000
63.0195	187.0000
63.0390	170.0000
63.0584	220.0000
63.0779	201.0000
63.0974	208.0000
63.1168	205.0000
63.1363	204.0000
63.1557	206.0000
63.1752	206.0000
63.1946	213.0000
63.2141	193.0000
63.2336	210.0000
63.2530	194.0000
63.2725	201.0000
63.2919	203.0000
63.3114	190.0000
63.3308	181.0000
63.3503	182.0000
63.3698	194.0000
63.3892	199.0000
63.4087	184.0000
63.4281	203.0000
63.4476	188.0000
63.4670	179.0000
63.4865	194.0000
63.5060	196.0000
63.5254	204.0000
63.5449	214.0000
63.5643	209.0000
63.5838	209.0000
63.6032	180.0000
63.6227	184.0000
63.6422	211.0000
63.6616	220.0000
63.6811	183.0000
63.7005	195.0000
63.7200	202.0000
63.7394	207.0000
63.7589	203.0000
63.7783	186.0000
63.7978	210.0000
63.8173	188.0000
63.8367	206.0000
63.8562	184.0000
63.8756	211.0000
63.8951	206.0000
63.9145	183.0000
63.9340	215.0000
63.9535	195.0000
63.9729	192.0000
63.9924	210.0000
64.0118	206.0000
64.0313	190.0000
64.0507	201.0000
64.0702	209.0000
64.0897	192.0000
64.1091	186.0000
64.1286	209.0000
64.1480	204.0000
64.1675	211.0000
64.1869	186.0000
64.2064	169.0000
64.2259	181.0000
64.2453	221.0000
64.2648	212.0000
64.2842	194.0000
64.3037	209.0000
64.3231	193.0000
64.3426	179.0000
64.3621	211.0000
64.3815	205.0000
64.4010	200.0000
64.4204	201.0000
64.4399	188.0000
64.4593	203.0000
64.4788	204.0000
64.4983	188.0000
64.5177	216.0000
64.5372	222.0000
64.5566	190.0000
64.5761	164.0000
64.5955	198.0000
64.6150	179.0000
64.6345	207.0000
64.6539	202.0000
64.6734	180.0000
64.6928	203.0000
64.7123	202.0000
64.7317	197.0000
64.7512	207.0000
64.7707	191.0000
64.7901	193.0000
64.8096	171.0000
64.8290	188.0000
64.8485	191.0000
64.8679	190.0000
64.8874	203.0000
64.9069	186.0000
64.9263	198.0000
64.9458	205.0000
64.9652	200.0000
64.9847	182.0000
65.0041	213.0000
65.0236	192.0000
65.0431	225.0000
65.0625	195.0000
65.0820	197.0000
65.1014	192.0000
65.1209	206.0000
65.1403	181.0000
65.1598	216.0000
65.1793	191.0000
65.1987	203.0000
65.2182	201.0000
65.2376	186.0000
65.2571	205.0000
65.2765	203.0000
65.2960	181.0000
65.3155	222.0000
65.3349	215.0000
65.3544	213.0000
65.3738	203.0000
65.3933	174.0000
65.4127	204.0000
65.4322	202.0000
65.4517	180.0000
65.4711	194.0000
65.4906	207.0000
65.5100	221.0000
65.5295	208.0000
65.5489	200.0000
65.5684	201.0000
65.5879	177.0000
65.6073	194.0000
65.6268	211.0000
65.6462	190.0000
65.6657	186.0000
65.6851	192.0000
65.7046	182.0000
65.7241	182.0000
65.7435	210.0000
65.7630	229.0000
65.7824	197.0000
65.8019	185.0000
65.8213	204.0000
65.8408	175.0000
65.8603	197.0000
65.8797	196.0000
65.8992	179.0000
65.9186	207.0000
65.9381	212.0000
65.9575	193.0000
65.9770	206.0000
65.9965	179.0000
66.0159	191.0000
66.0354	155.0000
66.0548	170.0000
66.0743	184.0000
66.0937	197.0000
66.1132	193.0000
66.1327	162.0000
66.1521	172.0000
66.1716	177.0000
66.1910	227.0000
66.2105	177.0000
66.2299	192.0000
66.2494	199.0000
66.2689	200.0000
66.2883	191.0000
66.3078	220.0000
66.3272	189.0000
66.3467	205.0000
66.3661	203.0000
66.3856	224.0000
66.4051	187.0000
66.4245	207.0000
66.4440	189.0000
66.4634	187.0000
66.4829	206.0000
66.5023	191.0000
66.5218	211.0000
66.5413	205.0000
66.5607	183.0000
66.5802	200.0000
66.5996	203.0000
66.6191	191.0000
66.6385	196.0000
66.6580	182.0000
66.6774	194.0000
66.6969	223.0000
66.7164	172.0000
66.7358	196.0000
66.7553	202.0000
66.7747	178.0000
66.7942	195.0000
66.8136	209.0000
66.8331	203.0000
66.8526	209.0000
66.8720	201.0000
66.8915	193.0000
66.9109	177.0000
66.9304	207.0000
66.9498	204.0000
66.9693	184.0000
66.9888	157.0000
67.0082	196.0000
67.0277	215.0000
67.0471	196.0000
67.0666	200.0000
67.0860	196.0000
67.1055	197.0000
67.1250	216.0000
67.1444	185.0000
67.1639	186.0000
67.1833	206.0000
67.2028	167.0000
67.2222	192.0000
67.2417	177.0000
67.2612	207.0000
67.2806	214.0000
67.3001	179.0000
67.3195	198.0000
67.3390	196.0000
67.3584	197.0000
67.3779	163.0000
67.3974	217.0000
67.4168	223.0000
67.4363	224.0000
67.4557	204.0000
67.4752	205.0000
67.4946	207.0000
67.5141	204.0000
67.5336	166.0000
67.5530	183.0000
67.5725	208.0000
67.5919	212.0000
67.6114	198.0000
67.6308	206.0000
67.6503	220.0000
67.6698	190.0000
67.6892	179.0000
67.7087	197.0000
67.7281	185.0000
67.7476	199.0000
67.7670	196.0000
67.7865	205.0000
67.8060	197.0000
67.8254	179.0000
67.8449	178.0000
67.8643	184.0000
67.8838	207.0000
67.9032	211.0000
67.9227	211.0000
67.9422	200.0000
67.9616	176.0000
67.9811	187.0000
68.0005	219.0000
68.0200	199.0000
68.0394	209.0000
68.0589	231.0000
68.0784	208.0000
68.0978	164.0000
68.1173	231.0000
68.1367	199.0000
68.1562	174.0000
68.1756	199.0000
68.1951	203.0000
68.2146	197.0000
68.2340	209.0000
68.2535	196.0000
68.2729	190.0000
68.2924	176.0000
68.3118	174.0000
68.3313	187.0000
68.3508	219.0000
68.3702	180.0000
68.3897	179.0000
68.4091	201.0000
68.4286	197.0000
68.4480	195.0000
68.4675	171.0000
68.4870	202.0000
68.5064	205.0000
68.5259	175.0000
68.5453	194.0000
68.5648	203.0000
68.5842	195.0000
68.6037	175.0000
68.6232	187.0000
68.6426	204.0000
68.6621	187.0000
68.6815	188.0000
68.7010	195.0000
68.7204	177.0000
68.7399	193.0000
68.7594	178.0000
68.7788	204.0000
68.7983	204.0000
68.8177	208.0000
68.8372	190.0000
68.8566	214.0000
68.8761	194.0000
68.8956	212.0000
68.9150	207.0000
68.9345	205.0000
68.9539	202.0000
68.9734	206.0000
68.9928	207.0000
69.0123	193.0000
69.0318	197.0000
69.0512	187.0000
69.0707	186.0000
69.0901	183.0000
69.1096	183.0000
69.1290	159.0000
69.1485	217.0000
69.1680	183.0000
69.1874	209.0000
69.2069	194.0000
69.2263	219.0000
69.2458	189.0000
69.2652	189.0000
69.2847	173.0000
69.3042	219.0000
69.3236	198.0000
69.3431	178.0000
69.3625	212.0000
69.3820	176.0000
69.4014	204.0000
69.4209	198.0000
69.4403	194.0000
69.4598	222.0000
69.4793	198.0000
69.4987	174.0000
69.5182	215.0000
69.5376	191.0000
69.5571	237.0000
69.5765	208.0000
69.5960	171.0000
69.6155	202.0000
69.6349	217.0000
69.6544	212.0000
69.6738	169.0000
69.6933	203.0000
69.7127	185.0000
69.7322	175.0000
69.7517	196.0000
69.7711	192.0000
69.7906	200.0000
69.8100	227.0000
69.8295	205.0000
69.8489	231.0000
69.8684	208.0000
69.8879	200.0000
69.9073	187.0000
69.9268	195.0000
69.9462	192.0000
69.9657	207.0000
69.9851	183.0000
70.0046	199.0000
70.0241	200.0000
70.0435	175.0000
70.0630	216.0000
70.0824	196.0000
70.1019	186.0000
70.1213	186.0000
70.1408	224.0000
70.1603	197.0000
70.1797	216.0000
70.1992	212.0000
70.2186	176.0000
70.2381	169.0000
70.2575	187.0000
70.2770	220.0000
70.2965	207.0000
70.3159	199.0000
70.3354	201.0000
70.3548	177.0000
70.3743	218.0000
70.3937	175.0000
70.4132	203.0000
70.4327	207.0000
70.4521	204.0000
70.4716	219.0000
70.4910	207.0000
70.5105	205.0000
70.5299	220.0000
70.5494	192.0000
70.5689	200.0000
70.5883	188.0000
70.6078	176.0000
70.6272	183.0000
70.6467	194.0000
70.6661	205.0000
70.6856	214.0000
70.7051	203.0000
70.7245	163.0000
70.7440	203.0000
70.7634	194.0000
70.7829	198.0000
70.8023	179.0000
70.8218	200.0000
70.8413	198.0000
70.8607	218.0000
70.8802	166.0000
70.8996	215.0000
70.9191	189.0000
70.9385	173.0000
70.9580	202.0000
70.9775	189.0000
70.9969	183.0000
71.0164	217.0000
71.0358	177.0000
71.0553	217.0000
71.0747	207.0000
71.0942	190.0000
71.1137	185.0000
71.1331	172.0000
71.1526	193.0000
71.1720	182.0000
71.1915	177.0000
71.2109	191.0000
71.2304	177.0000
71.2499	191.0000
71.2693	188.0000
71.2888	223.0000
71.3082	206.0000
71.3277	217.0000
71.3471	215.0000
71.3666	192.0000
71.3861	210.0000
71.4055	160.0000
71.4250	205.0000
71.4444	206.0000
71.4639	212.0000
71.4833	185.0000
71.5028	195.0000
71.5223	197.0000
71.5417	202.0000
71.5612	188.0000
71.5806	223.0000
71.6001	193.0000
71.6195	211.0000
71.6390	201.0000
71.6585	202.0000
71.6779	207.0000
71.6974	197.0000
71.7168	199.0000
71.7363	192.0000
71.7557	185.0000
71.7752	194.0000
71.7947	193.0000
71.8141	192.0000
71.8336	195.0000
71.8530	207.0000
71.8725	246.0000
71.8919	191.0000
71.9114	207.0000
71.9309	186.0000
71.9503	193.0000
71.9698	205.0000
71.9892	206.0000
72.0087	170.0000
72.0281	214.0000
72.0476	217.0000
72.0671	211.0000
72.0865	190.0000
72.1060	204.0000
72.1254	192.0000
72.1449	197.0000
72.1643	206.0000
72.1838	193.0000
72.2032	200.0000
72.2227	186.0000
72.2422	175.0000
72.2616	198.0000
72.2811	193.0000
72.3005	209.0000
72.3200	191.0000
72.3394	199.0000
72.3589	217.0000
72.3784	195.0000
72.3978	205.0000
72.4173	201.0000
72.4367	217.0000
72.4562	217.0000
72.4756	210.0000
72.4951	216.0000
72.5146	215.0000
72.5340	209.0000
72.5535	190.0000
72.5729	191.0000
72.5924	203.0000
72.6118	186.0000
72.6313	214.0000
72.6508	202.0000
72.6702	203.0000
72.6897	239.0000
72.7091	213.0000
72.7286	185.0000
72.7480	213.0000
72.7675	191.0000
72.7870	221.0000
72.8064	208.0000
72.8259	176.0000
72.8453	194.0000
72.8648	196.0000
72.8842	199.0000
72.9037	196.0000
72.9232	195.0000
72.9426	200.0000
72.9621	183.0000
72.9815	178.0000
73.0010	217.0000
73.0204	206.0000
73.0399	207.0000
73.0594	184.0000
73.0788	203.0000
73.0983	202.0000
73.1177	218.0000
73.1372	209.0000
73.1566	209.0000
73.1761	189.0000
73.1956	215.0000
73.2150	197.0000
73.2345	204.0000
73.2539	187.0000
73.2734	203.0000
73.2928	183.0000
73.3123	198.0000
73.3318	187.0000
73.3512	185.0000
73.3707	207.0000
73.3901	210.0000
73.4096	195.0000
73.4290	194.0000
73.4485	214.0000
73.4680	216.0000
73.4874	189.0000
73.5069	205.0000
73.5263	187.0000
73.5458	196.0000
73.5652	221.0000
73.5847	194.0000
73.6042	189.0000
73.6236	199.0000
73.6431	225.0000
73.6625	192.0000
73.6820	202.0000
73.7014	194.0000
73.7209	216.0000
73.7404	198.0000
73.7598	218.0000
73.7793	213.0000
73.7987	210.0000
73.8182	208.0000
73.8376	202.0000
73.8571	223.0000
73.8766	210.0000
73.8960	210.0000
73.9155	209.0000
73.9349	198.0000
73.9544	218.0000
73.9738	213.0000
73.9933	208.0000
74.0128	195.0000
74.0322	231.0000
74.0517	220.0000
74.0711	231.0000
74.0906	207.0000
74.1100	208.0000
74.1295	207.0000
74.1490	199.0000
74.1684	212.0000
74.1879	244.0000
74.2073	211.0000
74.2268	222.0000
74.2462	269.0000
74.2657	238.0000
74.2852	227.0000
74.3046	276.0000
74.3241	262.0000
74.3435	270.0000
74.3630	281.0000
74.3824	291.0000
74.4019	294.0000
74.4214	312.0000
74.4408	302.0000
74.4603	321.0000
74.4797	353.0000
74.4992	393.0000
74.5186	433.0000
74.5381	456.0000
74.5576	502.0000
74.5770	589.0000
74.5965	643.0000
74.6159	807.0000
74.6354	953.0000
74.6548	1112.0000
74.6743	1440.0000
74.6938	1528.0000
74.7132	1737.0000
74.7327	1799.0000
74.7521	1778.0000
74.7716	1670.0000
74.7910	1590.0000
74.8105	1419.0000
74.8300	1226.0000
74.8494	1187.0000
74.8689	1122.0000
74.8883	1171.0000
74.9078	1091.0000
74.9272	1145.0000
74.9467	1101.0000
74.9662	1057.0000
74.9856	1003.0000
75.0051	930.0000
75.0245	788.0000
75.0440	719.0000
75.0634	599.0000
75.0829	474.0000
75.1023	403.0000
75.1218	372.0000
75.1413	363.0000
75.1607	347.0000
75.1802	310.0000
75.1996	300.0000
75.2191	259.0000
75.2385	268.0000
75.2580	265.0000
75.2775	244.0000
75.2969	252.0000
75.3164	258.0000
75.3358	224.0000
75.3553	238.0000
75.3747	218.0000
75.3942	249.0000
75.4137	221.0000
75.4331	232.0000
75.4526	222.0000
75.4720	252.0000
75.4915	220.0000
75.5109	220.0000
75.5304	197.0000
75.5499	201.0000
75.5693	213.0000
75.5888	193.0000
75.6082	212.0000
75.6277	232.0000
75.6471	235.0000
75.6666	197.0000
75.6861	217.0000
75.7055	213.0000
75.7250	212.0000
75.7444	204.0000
75.7639	215.0000
75.7833	225.0000
75.8028	215.0000
75.8223	204.0000
75.8417	211.0000
75.8612	221.0000
75.8806	211.0000
75.9001	187.0000
75.9195	226.0000
75.9390	221.0000
75.9585	208.0000
75.9779	193.0000
75.9974	225.0000
76.0168	207.0000
76.0363	201.0000
76.0557	207.0000
76.0752	220.0000
76.0947	199.0000
76.1141	196.0000
76.1336	185.0000
76.1530	206.0000
76.1725	209.0000
76.1919	241.0000
76.2114	188.0000
76.2309	199.0000
76.2503	212.0000
76.2698	212.0000
76.2892	213.0000
76.3087	214.0000
76.3281	205.0000
76.3476	228.0000
76.3671	175.0000
76.3865	198.0000
76.4060	211.0000
76.4254	193.0000
76.4449	206.0000
76.4643	208.0000
76.4838	203.0000
76.5033	203.0000
76.5227	199.0000
76.5422	208.0000
76.5616	207.0000
76.5811	215.0000
76.6005	230.0000
76.6200	192.0000
76.6395	179.0000
76.6589	205.0000
76.6784	219.0000
76.6978	242.0000
76.7173	205.0000
76.7367	186.0000
76.7562	172.0000
76.7757	213.0000
76.7951	186.0000
76.8146	233.0000
76.8340	215.0000
76.8535	182.0000
76.8729	211.0000
76.8924	198.0000
76.9119	239.0000
76.9313	210.0000
76.9508	195.0000
76.9702	173.0000
76.9897	204.0000
77.0091	196.0000
77.0286	225.0000
77.0481	192.0000
77.0675	185.0000
77.0870	212.0000
77.1064	195.0000
77.1259	201.0000
77.1453	194.0000
77.1648	214.0000
77.1843	188.0000
77.2037	191.0000
77.2232	205.0000
77.2426	207.0000
77.2621	189.0000
77.2815	174.0000
77.3010	197.0000
77.3205	208.0000
77.3399	209.0000
77.3594	176.0000
77.3788	179.0000
77.3983	204.0000
77.4177	209.0000
77.4372	184.0000
77.4567	213.0000
77.4761	180.0000
77.4956	206.0000
77.5150	212.0000
77.5345	193.0000
77.5539	216.0000
77.5734	216.0000
77.5929	213.0000
77.6123	215.0000
77.6318	194.0000
77.6512	202.0000
77.6707	206.0000
77.6901	183.0000
77.7096	206.0000
77.7291	223.0000
77.7485	183.0000
77.7680	200.0000
77.7874	225.0000
77.8069	180.0000
77.8263	183.0000
77.8458	216.0000
77.8652	203.0000
77.8847	205.0000
77.9042	190.0000
77.9236	175.0000
77.9431	188.0000
77.9625	203.0000
77.9820	184.0000
78.0014	173.0000
78.0209	192.0000
78.0404	206.0000
78.0598	196.0000
78.0793	208.0000
78.0987	194.0000
78.1182	219.0000
78.1376	199.0000
78.1571	201.0000
78.1766	166.0000
78.1960	198.0000
78.2155	227.0000
78.2349	183.0000
78.2544	199.0000
78.2738	210.0000
78.2933	195.0000
78.3128	212.0000
78.3322	178.0000
78.3517	187.0000
78.3711	188.0000
78.3906	223.0000
78.4100	203.0000
78.4295	197.0000
78.4490	184.0000
78.4684	182.0000
78.4879	207.0000
78.5073	191.0000
78.5268	171.0000
78.5462	202.0000
78.5657	202.0000
78.5852	195.0000
78.6046	193.0000
78.6241	208.0000
78.6435	206.0000
78.6630	184.0000
78.6824	172.0000
78.7019	178.0000
78.7214	193.0000
78.7408	204.0000
78.7603	215.0000
78.7797	185.0000
78.7992	195.0000
78.8186	193.0000
78.8381	201.0000
78.8576	199.0000
78.8770	192.0000
78.8965	194.0000
78.9159	206.0000
78.9354	204.0000
78.9548	209.0000
78.9743	189.0000
78.9938	182.0000
79.0132	190.0000
79.0327	196.0000
79.0521	208.0000
79.0716	193.0000
79.0910	188.0000
79.1105	203.0000
79.1300	217.0000
79.1494	202.0000
79.1689	190.0000
79.1883	208.0000
79.2078	220.0000
79.2272	180.0000
79.2467	190.0000
79.2662	200.0000
79.2856	203.0000
79.3051	203.0000
79.3245	185.0000
79.3440	219.0000
79.3634	203.0000
79.3829	185.0000
79.4024	193.0000
79.4218	218.0000
79.4413	185.0000
79.4607	201.0000
79.4802	189.0000
79.4996	189.0000
79.5191	193.0000
79.5386	198.0000
79.5580	207.0000
79.5775	186.0000
79.5969	194.0000
79.6164	200.0000
79.6358	180.0000
79.6553	184.0000
79.6748	205.0000
79.6942	198.0000
79.7137	203.0000
79.7331	190.0000
79.7526	190.0000
79.7720	192.0000
79.7915	210.0000
79.8110	180.0000
79.8304	187.0000
79.8499	194.0000
79.8693	192.0000
79.8888	206.0000
79.9082	216.0000
79.9277	180.0000
79.9472	208.0000
79.9666	227.0000
79.9861	210.0000
80.0055	200.0000
80.0250	188.0000
80.0444	217.0000
80.0639	228.0000
80.0834	190.0000
80.1028	200.0000
80.1223	202.0000
80.1417	232.0000
80.1612	212.0000
80.1806	196.0000
80.2001	203.0000
80.2196	206.0000
80.2390	189.0000
80.2585	187.0000
80.2779	195.0000
80.2974	192.0000
80.3168	191.0000
80.3363	211.0000
80.3558	199.0000
80.3752	193.0000
80.3947	200.0000
80.4141	197.0000
80.4336	222.0000
80.4530	195.0000
80.4725	198.0000
80.4920	231.0000
80.5114	203.0000
80.5309	195.0000
80.5503	209.0000
80.5698	183.0000
80.5892	177.0000
80.6087	156.0000
80.6281	217.0000
80.6476	192.0000
80.6671	207.0000
80.6865	221.0000
80.7060	224.0000
80.7254	187.0000
80.7449	179.0000
80.7643	223.0000
80.7838	205.0000
80.8033	194.0000
80.8227	216.0000
80.8422	215.0000
80.8616	195.0000
80.8811	208.0000
80.9005	183.0000
80.9200	195.0000
80.9395	187.0000
80.9589	181.0000
80.9784	199.0000
80.9978	203.0000
81.0173	198.0000
81.0367	181.0000
81.0562	224.0000
81.0757	181.0000
81.0951	226.0000
81.1146	206.0000
81.1340	187.0000
81.1535	188.0000
81.1729	214.0000
81.1924	187.0000
81.2119	200.0000
81.2313	229.0000
81.2508	198.0000
81.2702	215.0000
81.2897	184.0000
81.3091	196.0000
81.3286	206.0000
81.3481	233.0000
81.3675	203.0000
81.3870	198.0000
81.4064	214.0000
81.4259	215.0000
81.4453	196.0000
81.4648	205.0000
81.4843	196.0000
81.5037	179.0000
81.5232	203.0000
81.5426	183.0000
81.5621	181.0000
81.5815	235.0000
81.6010	216.0000
81.6205	223.0000
81.6399	204.0000
81.6594	206.0000
81.6788	206.0000
81.6983	182.0000
81.7177	180.0000
81.7372	194.0000
81.7567	193.0000
81.7761	201.0000
81.7956	188.0000
81.8150	194.0000
81.8345	219.0000
81.8539	212.0000
81.8734	207.0000
81.8929	203.0000
81.9123	199.0000
81.9318	207.0000
81.9512	171.0000
81.9707	194.0000
81.9901	180.0000
82.0096	208.0000
82.0291	189.0000
82.0485	201.0000
82.0680	190.0000
82.0874	195.0000
82.1069	186.0000
82.1263	208.0000
82.1458	191.0000
82.1653	185.0000
82.1847	184.0000
82.2042	199.0000
82.2236	185.0000
82.2431	198.0000
82.2625	203.0000
82.2820	167.0000
82.3015	210.0000
82.3209	201.0000
82.3404	194.0000
82.3598	185.0000
82.3793	207.0000
82.3987	190.0000
82.4182	191.0000
82.4377	174.0000
82.4571	202.0000
82.4766	193.0000
82.4960	178.0000
82.5155	185.0000
82.5349	184.0000
82.5544	199.0000
82.5739	194.0000
82.5933	177.0000
82.6128	181.0000
82.6322	196.0000
82.6517	210.0000
82.6711	203.0000
82.6906	180.0000
82.7101	199.0000
82.7295	161.0000
82.7490	186.0000
82.7684	208.0000
82.7879	206.0000
82.8073	191.0000
82.8268	199.0000
82.8463	211.0000
82.8657	208.0000
82.8852	212.0000
82.9046	202.0000
82.9241	211.0000
82.9435	178.0000
82.9630	170.0000
82.9825	182.0000
83.0019	195.0000
83.0214	211.0000
83.0408	213.0000
83.0603	217.0000
83.0797	217.0000
83.0992	196.0000
83.1187	236.0000
83.1381	179.0000
83.1576	228.0000
83.1770	196.0000
83.1965	211.0000
83.2159	230.0000
83.2354	172.0000
83.2549	217.0000
83.2743	220.0000
83.2938	207.0000
83.3132	229.0000
83.3327	196.0000
83.3521	201.0000
83.3716	221.0000
83.3911	188.0000
83.4105	205.0000
83.4300	218.0000
83.4494	206.0000
83.4689	202.0000
83.4883	207.0000
83.5078	161.0000
83.5272	204.0000
83.5467	190.0000
83.5662	194.0000
83.5856	185.0000
83.6051	200.0000
83.6245	192.0000
83.6440	192.0000
83.6634	199.0000
83.6829	192.0000
83.7024	190.0000
83.7218	189.0000
83.7413	156.0000
83.7607	210.0000
83.7802	190.0000
83.7996	198.0000
83.8191	208.0000
83.8386	213.0000
83.8580	195.0000
83.8775	204.0000
83.8969	204.0000
83.9164	213.0000
83.9358	200.0000
83.9553	208.0000
83.9748	209.0000
83.9942	221.0000
84.0137	201.0000
84.0331	202.0000
84.0526	200.0000
84.0720	187.0000
84.0915	188.0000
84.1110	216.0000
84.1304	217.0000
84.1499	198.0000
84.1693	191.0000
84.1888	203.0000
84.2082	197.0000
84.2277	188.0000
84.2472	184.0000
84.2666	193.0000
84.2861	202.0000
84.3055	199.0000
84.3250	188.0000
84.3444	202.0000
84.3639	201.0000
84.3834	181.0000
84.4028	183.0000
84.4223	200.0000
84.4417	209.0000
84.4612	201.0000
84.4806	205.0000
84.5001	215.0000
84.5196	190.0000
84.5390	190.0000
84.5585	227.0000
84.5779	213.0000
84.5974	222.0000
84.6168	200.0000
84.6363	210.0000
84.6558	193.0000
84.6752	205.0000
84.6947	209.0000
84.7141	215.0000
84.7336	213.0000
84.7530	206.0000
84.7725	201.0000
84.7920	216.0000
84.8114	205.0000
84.8309	211.0000
84.8503	189.0000
84.8698	194.0000
84.8892	170.0000
84.9087	199.0000
84.9282	180.0000
84.9476	180.0000
84.9671	197.0000
84.9865	199.0000
85.0060	200.0000
85.0254	187.0000
85.0449	178.0000
85.0644	189.0000
85.0838	171.0000
85.1033	215.0000
85.1227	174.0000
85.1422	205.0000
85.1616	176.0000
85.1811	205.0000
85.2006	190.0000
85.2200	216.0000
85.2395	192.0000
85.2589	208.0000
85.2784	185.0000
85.2978	208.0000
85.3173	183.0000
85.3368	174.0000
85.3562	188.0000
85.3757	175.0000
85.3951	205.0000
85.4146	194.0000
85.4340	222.0000
85.4535	206.0000
85.4730	166.0000
85.4924	198.0000
85.5119	196.0000
85.5313	209.0000
85.5508	208.0000
85.5702	216.0000
85.5897	197.0000
85.6092	202.0000
85.6286	185.0000
85.6481	196.0000
85.6675	191.0000
85.6870	198.0000
85.7064	206.0000
85.7259	180.0000
85.7454	185.0000
85.7648	158.0000
85.7843	191.0000
85.8037	184.0000
85.8232	208.0000
85.8426	174.0000
85.8621	197.0000
85.8816	196.0000
85.9010	189.0000
85.9205	209.0000
85.9399	194.0000
85.9594	203.0000
85.9788	184.0000
85.9983	185.0000
86.0178	187.0000
86.0372	194.0000
86.0567	215.0000
86.0761	188.0000
86.0956	203.0000
86.1150	215.0000
86.1345	168.0000
86.1540	205.0000
86.1734	193.0000
86.1929	204.0000
86.2123	186.0000
86.2318	205.0000
86.2512	205.0000
86.2707	205.0000
86.2901	211.0000
86.3096	180.0000
86.3291	201.0000
86.3485	195.0000
86.3680	179.0000
86.3874	212.0000
86.4069	190.0000
86.4263	195.0000
86.4458	179.0000
86.4653	195.0000
86.4847	206.0000
86.5042	195.0000
86.5236	183.0000
86.5431	198.0000
86.5625	187.0000
86.5820	169.0000
86.6015	186.0000
86.6209	199.0000
86.6404	178.0000
86.6598	207.0000
86.6793	184.0000
86.6987	177.0000
86.7182	190.0000
86.7377	210.0000
86.7571	187.0000
86.7766	184.0000
86.7960	195.0000
86.8155	234.0000
86.8349	195.0000
86.8544	179.0000
86.8739	192.0000
86.8933	208.0000
86.9128	187.0000
86.9322	199.0000
86.9517	194.0000
86.9711	217.0000
86.9906	214.0000
87.0101	232.0000
87.0295	214.0000
87.0490	208.0000
87.0684	174.0000
87.0879	200.0000
87.1073	203.0000
87.1268	205.0000
87.1463	193.0000
87.1657	210.0000
87.1852	178.0000
87.2046	195.0000
87.2241	189.0000
87.2435	203.0000
87.2630	201.0000
87.2825	190.0000
87.3019	206.0000
87.3214	210.0000
87.3408	221.0000
87.3603	194.0000
87.3797	192.0000
87.3992	188.0000
87.4187	192.0000
87.4381	207.0000
87.4576	202.0000
87.4770	217.0000
87.4965	201.0000
87.5159	177.0000
87.5354	224.0000
87.5549	182.0000
87.5743	210.0000
87.5938	207.0000
87.6132	204.0000
87.6327	208.0000
87.6521	202.0000
87.6716	223.0000
87.6911	195.0000
87.7105	206.0000
87.7300	166.0000
87.7494	196.0000
87.7689	198.0000
87.7883	199.0000
87.8078	199.0000
87.8273	203.0000
87.8467	189.0000
87.8662	169.0000
87.8856	213.0000
87.9051	202.0000
87.9245	193.0000
87.9440	226.0000
87.9635	186.0000
87.9829	205.0000
88.0024	196.0000
88.0218	196.0000
88.0413	175.0000
88.0607	219.0000
88.0802	167.0000
88.0997	205.0000
88.1191	210.0000
88.1386	209.0000
88.1580	188.0000
88.1775	189.0000
88.1969	201.0000
88.2164	227.0000
88.2359	219.0000
88.2553	212.0000
88.2748	233.0000
88.2942	212.0000
88.3137	209.0000
88.3331	191.0000
88.3526	210.0000
88.3721	175.0000
88.3915	197.0000
88.4110	213.0000
88.4304	216.0000
88.4499	202.0000
88.4693	219.0000
88.4888	197.0000
88.5083	191.0000
88.5277	191.0000
88.5472	184.0000
88.5666	220.0000
88.5861	192.0000
88.6055	213.0000
88.6250	176.0000
88.6445	190.0000
88.6639	179.0000
88.6834	185.0000
88.7028	179.0000
88.7223	190.0000
88.7417	167.0000
88.7612	213.0000
88.7807	221.0000
88.8001	206.0000
88.8196	207.0000
88.8390	192.0000
88.8585	224.0000
88.8779	202.0000
88.8974	220.0000
88.9169	203.0000
88.9363	221.0000
88.9558	198.0000
88.9752	194.0000
88.9947	200.0000
89.0141	184.0000
89.0336	202.0000
89.0531	196.0000
89.0725	188.0000
89.0920	192.0000
89.1114	209.0000
89.1309	217.0000
89.1503	201.0000
89.1698	194.0000
89.1892	201.0000
89.2087	213.0000
89.2282	223.0000
89.2476	220.0000
89.2671	219.0000
89.2865	198.0000
89.3060	190.0000
89.3254	227.0000
89.3449	199.0000
89.3644	209.0000
89.3838	198.0000
89.4033	200.0000
89.4227	179.0000
89.4422	216.0000
89.4616	195.0000
89.4811	217.0000
89.5006	207.0000
89.5200	208.0000
89.5395	206.0000
89.5589	204.0000
89.5784	218.0000
89.5978	213.0000
89.6173	227.0000
89.6368	244.0000
89.6562	222.0000
89.6757	224.0000
89.6951	206.0000
89.7146	226.0000
89.7340	227.0000
89.7535	200.0000
89.7730	216.0000
89.7924	209.0000
89.8119	223.0000
89.8313	248.0000
89.8508	217.0000
89.8702	243.0000
89.8897	212.0000
89.9092	230.0000
89.9286	212.0000
89.9481	232.0000
89.9675	216.0000
89.9870	256.0000
90.0064	219.0000
90.0259	210.0000
90.0454	216.0000
90.0648	256.0000
90.0843	237.0000
90.1037	233.0000
90.1232	236.0000
90.1426	225.0000
90.1621	214.0000
90.1816	215.0000
90.2010	226.0000
90.2205	227.0000
90.2399	247.0000
90.2594	238.0000
90.2788	239.0000
90.2983	256.0000
90.3178	255.0000
90.3372	290.0000
90.3567	251.0000
90.3761	243.0000
90.3956	251.0000
90.4150	252.0000
90.4345	254.0000
90.4540	263.0000
90.4734	256.0000
90.4929	266.0000
90.5123	269.0000
90.5318	266.0000
90.5512	276.0000
90.5707	279.0000
90.5902	270.0000
90.6096	236.0000
90.6291	289.0000
90.6485	268.0000
90.6680	255.0000
90.6874	260.0000
90.7069	252.0000
90.7264	306.0000
90.7458	257.0000
90.7653	290.0000
90.7847	244.0000
90.8042	285.0000
90.8236	258.0000
90.8431	267.0000
90.8626	276.0000
90.8820	292.0000
90.9015	273.0000
90.9209	258.0000
90.9404	233.0000
90.9598	239.0000
90.9793	264.0000
90.9988	262.0000
91.0182	238.0000
91.0377	231.0000
91.0571	243.0000
91.0766	254.0000
91.0960	260.0000
91.1155	249.0000
91.1350	218.0000
91.1544	255.0000
91.1739	235.0000
91.1933	253.0000
91.2128	225.0000
91.2322	263.0000
91.2517	241.0000
91.2712	232.0000
91.2906	237.0000
91.3101	214.0000
91.3295	212.0000
91.3490	225.0000
91.3684	233.0000
91.3879	205.0000
91.4074	211.0000
91.4268	219.0000
91.4463	240.0000
91.4657	237.0000
91.4852	223.0000
91.5046	191.0000
91.5241	240.0000
91.5436	214.0000
91.5630	231.0000
91.5825	200.0000
91.6019	230.0000
91.6214	247.0000
91.6408	191.0000
91.6603	206.0000
91.6798	187.0000
91.6992	213.0000
91.7187	207.0000
91.7381	227.0000
91.7576	215.0000
91.7770	203.0000
91.7965	220.0000
91.8160	224.0000
91.8354	207.0000
91.8549	199.0000
91.8743	193.0000
91.8938	214.0000
91.9132	204.0000
91.9327	205.0000
91.9521	216.0000
91.9716	216.0000
91.9911	227.0000
92.0105	209.0000
92.0300	201.0000
92.0494	201.0000
92.0689	195.0000
92.0883	199.0000
92.1078	207.0000
92.1273	206.0000
92.1467	219.0000
92.1662	217.0000
92.1856	204.0000
92.2051	231.0000
92.2245	206.0000
92.2440	211.0000
92.2635	206.0000
92.2829	202.0000
92.3024	215.0000
92.3218	197.0000
92.3413	219.0000
92.3607	186.0000
92.3802	211.0000
92.3997	204.0000
92.4191	221.0000
92.4386	190.0000
92.4580	214.0000
92.4775	216.0000
92.4969	194.0000
92.5164	225.0000
92.5359	222.0000
92.5553	201.0000
92.5748	194.0000
92.5942	225.0000
92.6137	197.0000
92.6331	198.0000
92.6526	243.0000
92.6721	207.0000
92.6915	216.0000
92.7110	217.0000
92.7304	200.0000
92.7499	209.0000
92.7693	211.0000
92.7888	203.0000
92.8083	203.0000
92.8277	215.0000
92.8472	220.0000
92.8666	234.0000
92.8861	245.0000
92.9055	198.0000
92.9250	195.0000
92.9445	198.0000
92.9639	221.0000
92.9834	200.0000
93.0028	208.0000
93.0223	188.0000
93.0417	206.0000
93.0612	199.0000
93.0807	219.0000
93.1001	213.0000
93.1196	196.0000
93.1390	214.0000
93.1585	198.0000
93.1779	196.0000
93.1974	221.0000
93.2169	241.0000
93.2363	186.0000
93.2558	190.0000
93.2752	204.0000
93.2947	194.0000
93.3141	204.0000
93.3336	207.0000
93.3531	201.0000
93.3725	217.0000
93.3920	196.0000
93.4114	210.0000
93.4309	169.0000
93.4503	200.0000
93.4698	200.0000
93.4893	202.0000
93.5087	185.0000
93.5282	210.0000
93.5476	228.0000
93.5671	197.0000
93.5865	198.0000
93.6060	184.0000
93.6255	235.0000
93.6449	204.0000
93.6644	213.0000
93.6838	189.0000
93.7033	174.0000
93.7227	199.0000
93.7422	213.0000
93.7617	194.0000
93.7811	194.0000
93.8006	201.0000
93.8200	191.0000
93.8395	195.0000
93.8589	200.0000
93.8784	209.0000
93.8979	201.0000
93.9173	208.0000
93.9368	209.0000
93.9562	196.0000
93.9757	225.0000
93.9951	209.0000
94.0146	210.0000
94.0341	190.0000
94.0535	214.0000
94.0730	213.0000
94.0924	225.0000
94.1119	211.0000
94.1313	211.0000
94.1508	220.0000
94.1703	213.0000
94.1897	201.0000
94.2092	205.0000
94.2286	229.0000
94.2481	200.0000
94.2675	182.0000
94.2870	207.0000
94.3065	209.0000
94.3259	235.0000
94.3454	213.0000
94.3648	240.0000
94.3843	234.0000
94.4037	225.0000
94.4232	239.0000
94.4427	216.0000
94.4621	210.0000
94.4816	216.0000
94.5010	220.0000
94.5205	220.0000
94.5399	196.0000
94.5594	215.0000
94.5789	211.0000
94.5983	199.0000
94.6178	204.0000
94.6372	227.0000
94.6567	238.0000
94.6761	194.0000
94.6956	219.0000
94.7150	215.0000
94.7345	219.0000
94.7540	206.0000
94.7734	238.0000
94.7929	212.0000
94.8123	211.0000
94.8318	187.0000
94.8512	239.0000
94.8707	207.0000
94.8902	245.0000
94.9096	227.0000
94.9291	201.0000
94.9485	200.0000
94.9680	192.0000
94.9874	248.0000
95.0069	182.0000
95.0264	234.0000
95.0458	216.0000
95.0653	231.0000
95.0847	214.0000
95.1042	211.0000
95.1236	196.0000
95.1431	221.0000
95.1626	204.0000
95.1820	233.0000
95.2015	210.0000
95.2209	211.0000
95.2404	233.0000
95.2598	221.0000
95.2793	212.0000
95.2988	205.0000
95.3182	207.0000
95.3377	224.0000
95.3571	233.0000
95.3766	227.0000
95.3960	204.0000
95.4155	232.0000
95.4350	210.0000
95.4544	213.0000
95.4739	209.0000
95.4933	192.0000
95.5128	198.0000
95.5322	210.0000
95.5517	219.0000
95.5712	222.0000
95.5906	219.0000
95.6101	230.0000
95.6295	207.0000
95.6490	220.0000
95.6684	175.0000
95.6879	192.0000
95.7074	202.0000
95.7268	217.0000
95.7463	176.0000
95.7657	216.0000
95.7852	218.0000
95.8046	216.0000
95.8241	219.0000
95.8436	215.0000
95.8630	245.0000
95.8825	209.0000
95.9019	204.0000
95.9214	233.0000
95.9408	219.0000
95.9603	197.0000
95.9798	212.0000
95.9992	253.0000
96.0187	220.0000
96.0381	225.0000
96.0576	233.0000
96.0770	227.0000
96.0965	181.0000
96.1160	247.0000
96.1354	226.0000
96.1549	202.0000
96.1743	227.0000
96.1938	201.0000
96.2132	235.0000
96.2327	197.0000
96.2522	227.0000
96.2716	202.0000
96.2911	247.0000
96.3105	198.0000
96.3300	220.0000
96.3494	215.0000
96.3689	205.0000
96.3884	208.0000
96.4078	210.0000
96.4273	209.0000
96.4467	200.0000
96.4662	193.0000
96.4856	231.0000
96.5051	218.0000
96.5246	219.0000
96.5440	224.0000
96.5635	196.0000
96.5829	227.0000
96.6024	210.0000
96.6218	205.0000
96.6413	217.0000
96.6608	207.0000
96.6802	212.0000
96.6997	206.0000
96.7191	209.0000
96.7386	228.0000
96.7580	207.0000
96.7775	199.0000
96.7970	211.0000
96.8164	207.0000
96.8359	207.0000
96.8553	247.0000
96.8748	214.0000
96.8942	205.0000
96.9137	210.0000
96.9332	203.0000
96.9526	198.0000
96.9721	189.0000
96.9915	208.0000
97.0110	198.0000
97.0304	194.0000
97.0499	223.0000
97.0694	205.0000
97.0888	218.0000
97.1083	205.0000
97.1277	228.0000
97.1472	196.0000
97.1666	210.0000
97.1861	217.0000
97.2056	205.0000
97.2250	204.0000
97.2445	220.0000
97.2639	214.0000
97.2834	236.0000
97.3028	228.0000
97.3223	245.0000
97.3418	220.0000
97.3612	206.0000
97.3807	235.0000
97.4001	202.0000
97.4196	199.0000
97.4390	201.0000
97.4585	199.0000
97.4780	220.0000
97.4974	200.0000
97.5169	198.0000
97.5363	216.0000
97.5558	213.0000
97.5752	191.0000
97.5947	217.0000
97.6141	239.0000
97.6336	175.0000
97.6531	191.0000
97.6725	211.0000
97.6920	188.0000
97.7114	222.0000
97.7309	207.0000
97.7503	216.0000
97.7698	192.0000
97.7893	207.0000
97.8087	184.0000
97.8282	207.0000
97.8476	205.0000
97.8671	209.0000
97.8865	221.0000
97.9060	199.0000
97.9255	178.0000
97.9449	236.0000
97.9644	198.0000
97.9838	192.0000
98.0033	224.0000
98.0227	214.0000
98.0422	208.0000
98.0617	197.0000
98.0811	186.0000
98.1006	200.0000
98.1200	192.0000
98.1395	211.0000
98.1589	218.0000
98.1784	199.0000
98.1979	193.0000
98.2173	209.0000
98.2368	196.0000
98.2562	201.0000
98.2757	220.0000
98.2951	199.0000
98.3146	198.0000
98.3341	203.0000
98.3535	219.0000
98.3730	204.0000
98.3924	207.0000
98.4119	220.0000
98.4313	227.0000
98.4508	222.0000
98.4703	226.0000
98.4897	202.0000
98.5092	208.0000
98.5286	225.0000
98.5481	214.0000
98.5675	185.0000
98.5870	200.0000
98.6065	197.0000
98.6259	239.0000
98.6454	222.0000
98.6648	213.0000
98.6843	186.0000
98.7037	185.0000
98.7232	247.0000
98.7427	221.0000
98.7621	191.0000
98.7816	186.0000
98.8010	212.0000
98.8205	223.0000
98.8399	204.0000
98.8594	229.0000
98.8789	187.0000
98.8983	210.0000
98.9178	201.0000
98.9372	209.0000
98.9567	224.0000
98.9761	205.0000
98.9956	211.0000
99.0151	203.0000
99.0345	198.0000
99.0540	216.0000
99.0734	226.0000
99.0929	214.0000
99.1123	204.0000
99.1318	205.0000
99.1513	221.0000
99.1707	186.0000
99.1902	205.0000
99.2096	204.0000
99.2291	195.0000
99.2485	236.0000
99.2680	222.0000
99.2875	220.0000
99.3069	202.0000
99.3264	241.0000
99.3458	195.0000
99.3653	224.0000
99.3847	203.0000
99.4042	226.0000
99.4237	216.0000
99.4431	220.0000
99.4626	189.0000
99.4820	208.0000
99.5015	219.0000
99.5209	179.0000
99.5404	205.0000
99.5599	221.0000
99.5793	188.0000
99.5988	195.0000
99.6182	222.0000
99.6377	210.0000
99.6571	210.0000
99.6766	185.0000
99.6961	192.0000
99.7155	192.0000
99.7350	190.0000
99.7544	207.0000
99.7739	188.0000
99.7933	181.0000
99.8128	180.0000
99.8323	211.0000
99.8517	229.0000
99.8712	194.0000
99.8906	197.0000
99.9101	213.0000
99.9295	223.0000
99.9490	190.0000
99.9685	189.0000
99.9879	195.0000
100.0074	216.0000
