30.0009	154.0000
30.0204	148.0000
30.0398	152.0000
30.0593	156.0000
30.0787	163.0000
30.0982	194.0000
30.1177	156.0000
30.1371	157.0000
30.1566	167.0000
30.1760	152.0000
30.1955	145.0000
30.2149	132.0000
30.2344	160.0000
30.2539	182.0000
30.2733	152.0000
30.2928	150.0000
30.3122	159.0000
30.3317	152.0000
30.3511	161.0000
30.3706	145.0000
30.3901	165.0000
30.4095	153.0000
30.4290	142.0000
30.4484	159.0000
30.4679	167.0000
30.4873	166.0000
30.5068	172.0000
30.5263	151.0000
30.5457	165.0000
30.5652	153.0000
30.5846	185.0000
30.6041	150.0000
30.6235	170.0000
30.6430	162.0000
30.6625	169.0000
30.6819	173.0000
30.7014	149.0000
30.7208	180.0000
30.7403	183.0000
30.7597	157.0000
30.7792	137.0000
30.7987	171.0000
30.8181	160.0000
30.8376	172.0000
30.8570	148.0000
30.8765	147.0000
30.8959	153.0000
30.9154	154.0000
30.9349	164.0000
30.9543	167.0000
30.9738	143.0000
30.9932	152.0000
31.0127	164.0000
31.0321	165.0000
31.0516	187.0000
31.0711	161.0000
31.0905	178.0000
31.1100	168.0000
31.1294	142.0000
31.1489	153.0000
31.1683	162.0000
31.1878	159.0000
31.2073	146.0000
31.2267	181.0000
31.2462	154.0000
31.2656	145.0000
31.2851	152.0000
31.3045	139.0000
31.3240	164.0000
31.3435	160.0000
31.3629	157.0000
31.3824	148.0000
31.4018	161.0000
31.4213	162.0000
31.4407	151.0000
31.4602	163.0000
31.4797	158.0000
31.4991	163.0000
31.5186	151.0000
31.5380	122.0000
31.5575	156.0000
31.5769	156.0000
31.5964	122.0000
31.6159	155.0000
31.6353	137.0000
31.6548	180.0000
31.6742	141.0000
31.6937	145.0000
31.7131	141.0000
31.7326	174.0000
31.7521	166.0000
31.7715	162.0000
31.7910	158.0000
31.8104	160.0000
31.8299	175.0000
31.8493	156.0000
31.8688	161.0000
31.8883	164.0000
31.9077	162.0000
31.9272	139.0000
31.9466	160.0000
31.9661	152.0000
31.9855	166.0000
32.0050	173.0000
32.0245	167.0000
32.0439	155.0000
32.0634	153.0000
32.0828	142.0000
32.1023	170.0000
32.1217	155.0000
32.1412	182.0000
32.1607	167.0000
32.1801	165.0000
32.1996	163.0000
32.2190	144.0000
32.2385	162.0000
32.2579	157.0000
32.2774	183.0000
32.2969	158.0000
32.3163	172.0000
32.3358	147.0000
32.3552	158.0000
32.3747	153.0000
32.3941	141.0000
32.4136	151.0000
32.4331	143.0000
32.4525	166.0000
32.4720	145.0000
32.4914	167.0000
32.5109	156.0000
32.5303	150.0000
32.5498	147.0000
32.5693	117.0000
32.5887	183.0000
32.6082	154.0000
32.6276	151.0000
32.6471	158.0000
32.6665	207.0000
32.6860	155.0000
32.7055	160.0000
32.7249	176.0000
32.7444	141.0000
32.7638	173.0000
32.7833	154.0000
32.8027	143.0000
32.8222	142.0000
32.8416	165.0000
32.8611	145.0000
32.8806	171.0000
32.9000	153.0000
32.9195	181.0000
32.9389	154.0000
32.9584	178.0000
32.9778	181.0000
32.9973	156.0000
33.0168	132.0000
33.0362	164.0000
33.0557	159.0000
33.0751	157.0000
33.0946	177.0000
33.1140	140.0000
33.1335	175.0000
33.1530	161.0000
33.1724	157.0000
33.1919	179.0000
33.2113	147.0000
33.2308	140.0000
33.2502	129.0000
33.2697	162.0000
33.2892	136.0000
33.3086	144.0000
33.3281	164.0000
33.3475	146.0000
33.3670	159.0000
33.3864	149.0000
33.4059	161.0000
33.4254	171.0000
33.4448	157.0000
33.4643	153.0000
33.4837	149.0000
33.5032	167.0000
33.5226	168.0000
33.5421	187.0000
33.5616	156.0000
33.5810	152.0000
33.6005	164.0000
33.6199	179.0000
33.6394	164.0000
33.6588	168.0000
33.6783	162.0000
33.6978	154.0000
33.7172	162.0000
33.7367	169.0000
33.7561	158.0000
33.7756	181.0000
33.7950	199.0000
33.8145	167.0000
33.8340	145.0000
33.8534	164.0000
33.8729	147.0000
33.8923	147.0000
33.9118	180.0000
33.9312	155.0000
33.9507	160.0000
33.9702	168.0000
33.9896	169.0000
34.0091	143.0000
34.0285	176.0000
34.0480	175.0000
34.0674	164.0000
34.0869	156.0000
34.1064	163.0000
34.1258	160.0000
34.1453	177.0000
34.1647	169.0000
34.1842	158.0000
34.2036	156.0000
34.2231	138.0000
34.2426	153.0000
34.2620	172.0000
34.2815	146.0000
34.3009	153.0000
34.3204	156.0000
34.3398	135.0000
34.3593	160.0000
34.3788	162.0000
34.3982	155.0000
34.4177	179.0000
34.4371	168.0000
34.4566	155.0000
34.4760	196.0000
34.4955	167.0000
34.5150	166.0000
34.5344	179.0000
34.5539	153.0000
34.5733	164.0000
34.5928	157.0000
34.6122	152.0000
34.6317	181.0000
34.6512	175.0000
34.6706	172.0000
34.6901	164.0000
34.7095	174.0000
34.7290	160.0000
34.7484	174.0000
34.7679	209.0000
34.7874	160.0000
34.8068	176.0000
34.8263	172.0000
34.8457	177.0000
34.8652	163.0000
34.8846	176.0000
34.9041	166.0000
34.9236	140.0000
34.9430	165.0000
34.9625	175.0000
34.9819	164.0000
35.0014	164.0000
35.0208	164.0000
35.0403	194.0000
35.0598	166.0000
35.0792	181.0000
35.0987	197.0000
35.1181	174.0000
35.1376	184.0000
35.1570	178.0000
35.1765	173.0000
35.1960	172.0000
35.2154	183.0000
35.2349	157.0000
35.2543	163.0000
35.2738	186.0000
35.2932	178.0000
35.3127	177.0000
35.3322	176.0000
35.3516	178.0000
35.3711	183.0000
35.3905	175.0000
35.4100	174.0000
35.4294	166.0000
35.4489	171.0000
35.4684	162.0000
35.4878	176.0000
35.5073	180.0000
35.5267	176.0000
35.5462	183.0000
35.5656	171.0000
35.5851	169.0000
35.6045	182.0000
35.6240	167.0000
35.6435	162.0000
35.6629	159.0000
35.6824	185.0000
35.7018	170.0000
35.7213	185.0000
35.7407	149.0000
35.7602	169.0000
35.7797	167.0000
35.7991	182.0000
35.8186	162.0000
35.8380	157.0000
35.8575	160.0000
35.8769	167.0000
35.8964	185.0000
35.9159	172.0000
35.9353	167.0000
35.9548	186.0000
35.9742	185.0000
35.9937	158.0000
36.0131	198.0000
36.0326	155.0000
36.0521	176.0000
36.0715	169.0000
36.0910	164.0000
36.1104	179.0000
36.1299	164.0000
36.1493	155.0000
36.1688	182.0000
36.1883	179.0000
36.2077	159.0000
36.2272	168.0000
36.2466	174.0000
36.2661	170.0000
36.2855	177.0000
36.3050	158.0000
36.3245	180.0000
36.3439	184.0000
36.3634	170.0000
36.3828	169.0000
36.4023	176.0000
36.4217	173.0000
36.4412	176.0000
36.4607	178.0000
36.4801	181.0000
36.4996	168.0000
36.5190	175.0000
36.5385	185.0000
36.5579	177.0000
36.5774	179.0000
36.5969	203.0000
36.6163	171.0000
36.6358	207.0000
36.6552	164.0000
36.6747	154.0000
36.6941	180.0000
36.7136	203.0000
36.7331	193.0000
36.7525	155.0000
36.7720	155.0000
36.7914	163.0000
36.8109	167.0000
36.8303	166.0000
36.8498	172.0000
36.8693	180.0000
36.8887	198.0000
36.9082	174.0000
36.9276	167.0000
36.9471	170.0000
36.9665	185.0000
36.9860	174.0000
37.0055	185.0000
37.0249	171.0000
37.0444	180.0000
37.0638	185.0000
37.0833	154.0000
37.1027	182.0000
37.1222	145.0000
37.1417	189.0000
37.1611	175.0000
37.1806	149.0000
37.2000	170.0000
37.2195	181.0000
37.2389	186.0000
37.2584	200.0000
37.2779	174.0000
37.2973	179.0000
37.3168	166.0000
37.3362	154.0000
37.3557	181.0000
37.3751	175.0000
37.3946	184.0000
37.4141	158.0000
37.4335	194.0000
37.4530	189.0000
37.4724	175.0000
37.4919	177.0000
37.5113	186.0000
37.5308	173.0000
37.5503	180.0000
37.5697	146.0000
37.5892	168.0000
37.6086	189.0000
37.6281	162.0000
37.6475	197.0000
37.6670	162.0000
37.6865	178.0000
37.7059	154.0000
37.7254	178.0000
37.7448	187.0000
37.7643	187.0000
37.7837	184.0000
37.8032	198.0000
37.8227	172.0000
37.8421	182.0000
37.8616	193.0000
37.8810	181.0000
37.9005	180.0000
37.9199	202.0000
37.9394	169.0000
37.9589	191.0000
37.9783	169.0000
37.9978	183.0000
38.0172	198.0000
38.0367	172.0000
38.0561	187.0000
38.0756	163.0000
38.0951	165.0000
38.1145	194.0000
38.1340	171.0000
38.1534	166.0000
38.1729	175.0000
38.1923	164.0000
38.2118	178.0000
38.2313	180.0000
38.2507	158.0000
38.2702	168.0000
38.2896	168.0000
38.3091	161.0000
38.3285	191.0000
38.3480	198.0000
38.3675	178.0000
38.3869	179.0000
38.4064	188.0000
38.4258	172.0000
38.4453	194.0000
38.4647	182.0000
38.4842	171.0000
38.5036	210.0000
38.5231	179.0000
38.5426	168.0000
38.5620	186.0000
38.5815	175.0000
38.6009	178.0000
38.6204	192.0000
38.6398	182.0000
38.6593	178.0000
38.6788	197.0000
38.6982	195.0000
38.7177	175.0000
38.7371	178.0000
38.7566	196.0000
38.7760	189.0000
38.7955	175.0000
38.8150	196.0000
38.8344	191.0000
38.8539	194.0000
38.8733	185.0000
38.8928	183.0000
38.9122	209.0000
38.9317	188.0000
38.9512	189.0000
38.9706	178.0000
38.9901	170.0000
39.0095	195.0000
39.0290	176.0000
39.0484	179.0000
39.0679	181.0000
39.0874	180.0000
39.1068	197.0000
39.1263	179.0000
39.1457	189.0000
39.1652	186.0000
39.1846	218.0000
39.2041	184.0000
39.2236	191.0000
39.2430	175.0000
39.2625	183.0000
39.2819	179.0000
39.3014	192.0000
39.3208	204.0000
39.3403	198.0000
39.3598	200.0000
39.3792	186.0000
39.3987	168.0000
39.4181	196.0000
39.4376	220.0000
39.4570	180.0000
39.4765	170.0000
39.4960	191.0000
39.5154	169.0000
39.5349	179.0000
39.5543	180.0000
39.5738	171.0000
39.5932	177.0000
39.6127	206.0000
39.6322	192.0000
39.6516	193.0000
39.6711	201.0000
39.6905	186.0000
39.7100	198.0000
39.7294	190.0000
39.7489	186.0000
39.7684	195.0000
39.7878	200.0000
39.8073	175.0000
39.8267	180.0000
39.8462	175.0000
39.8656	210.0000
39.8851	170.0000
39.9046	183.0000
39.9240	191.0000
39.9435	184.0000
39.9629	195.0000
39.9824	227.0000
40.0018	175.0000
40.0213	186.0000
40.0408	217.0000
40.0602	193.0000
40.0797	172.0000
40.0991	177.0000
40.1186	201.0000
40.1380	183.0000
40.1575	182.0000
40.1770	203.0000
40.1964	217.0000
40.2159	189.0000
40.2353	167.0000
40.2548	240.0000
40.2742	182.0000
40.2937	191.0000
40.3132	172.0000
40.3326	178.0000
40.3521	171.0000
40.3715	185.0000
40.3910	195.0000
40.4104	189.0000
40.4299	196.0000
40.4494	210.0000
40.4688	208.0000
40.4883	186.0000
40.5077	188.0000
40.5272	206.0000
40.5466	183.0000
40.5661	183.0000
40.5856	199.0000
40.6050	194.0000
40.6245	178.0000
40.6439	190.0000
40.6634	198.0000
40.6828	199.0000
40.7023	198.0000
40.7218	194.0000
40.7412	220.0000
40.7607	182.0000
40.7801	194.0000
40.7996	206.0000
40.8190	218.0000
40.8385	155.0000
40.8580	219.0000
40.8774	187.0000
40.8969	211.0000
40.9163	205.0000
40.9358	204.0000
40.9552	191.0000
40.9747	185.0000
40.9942	211.0000
41.0136	187.0000
41.0331	211.0000
41.0525	189.0000
41.0720	206.0000
41.0914	200.0000
41.1109	187.0000
41.1304	219.0000
41.1498	177.0000
41.1693	211.0000
41.1887	187.0000
41.2082	194.0000
41.2276	190.0000
41.2471	215.0000
41.2665	211.0000
41.2860	202.0000
41.3055	186.0000
41.3249	206.0000
41.3444	212.0000
41.3638	222.0000
41.3833	210.0000
41.4027	215.0000
41.4222	192.0000
41.4417	220.0000
41.4611	200.0000
41.4806	218.0000
41.5000	196.0000
41.5195	205.0000
41.5389	205.0000
41.5584	195.0000
41.5779	185.0000
41.5973	206.0000
41.6168	183.0000
41.6362	198.0000
41.6557	214.0000
41.6751	191.0000
41.6946	236.0000
41.7141	179.0000
41.7335	215.0000
41.7530	211.0000
41.7724	193.0000
41.7919	194.0000
41.8113	189.0000
41.8308	202.0000
41.8503	242.0000
41.8697	195.0000
41.8892	191.0000
41.9086	197.0000
41.9281	205.0000
41.9475	246.0000
41.9670	209.0000
41.9865	209.0000
42.0059	203.0000
42.0254	227.0000
42.0448	209.0000
42.0643	198.0000
42.0837	181.0000
42.1032	215.0000
42.1227	222.0000
42.1421	223.0000
42.1616	215.0000
42.1810	219.0000
42.2005	190.0000
42.2199	226.0000
42.2394	219.0000
42.2589	211.0000
42.2783	263.0000
42.2978	215.0000
42.3172	195.0000
42.3367	198.0000
42.3561	220.0000
42.3756	236.0000
42.3951	216.0000
42.4145	221.0000
42.4340	243.0000
42.4534	222.0000
42.4729	222.0000
42.4923	232.0000
42.5118	229.0000
42.5313	227.0000
42.5507	248.0000
42.5702	227.0000
42.5896	235.0000
42.6091	189.0000
42.6285	223.0000
42.6480	223.0000
42.6675	226.0000
42.6869	238.0000
42.7064	232.0000
42.7258	214.0000
42.7453	251.0000
42.7647	231.0000
42.7842	259.0000
42.8037	278.0000
42.8231	227.0000
42.8426	225.0000
42.8620	269.0000
42.8815	251.0000
42.9009	227.0000
42.9204	242.0000
42.9399	253.0000
42.9593	241.0000
42.9788	281.0000
42.9982	270.0000
43.0177	255.0000
43.0371	272.0000
43.0566	294.0000
43.0761	279.0000
43.0955	231.0000
43.1150	271.0000
43.1344	252.0000
43.1539	289.0000
43.1733	281.0000
43.1928	304.0000
43.2123	293.0000
43.2317	284.0000
43.2512	303.0000
43.2706	263.0000
43.2901	313.0000
43.3095	320.0000
43.3290	336.0000
43.3485	354.0000
43.3679	335.0000
43.3874	379.0000
43.4068	349.0000
43.4263	386.0000
43.4457	424.0000
43.4652	463.0000
43.4847	477.0000
43.5041	505.0000
43.5236	481.0000
43.5430	573.0000
43.5625	596.0000
43.5819	675.0000
43.6014	675.0000
43.6209	825.0000
43.6403	836.0000
43.6598	986.0000
43.6792	972.0000
43.6987	1109.0000
43.7181	1252.0000
43.7376	1347.0000
43.7571	1341.0000
43.7765	1374.0000
43.7960	1464.0000
43.8154	1419.0000
43.8349	1437.0000
43.8543	1330.0000
43.8738	1310.0000
43.8933	1251.0000
43.9127	1144.0000
43.9322	1047.0000
43.9516	992.0000
43.9711	875.0000
43.9905	799.0000
44.0100	763.0000
44.0295	665.0000
44.0489	645.0000
44.0684	582.0000
44.0878	562.0000
44.1073	490.0000
44.1267	532.0000
44.1462	468.0000
44.1656	440.0000
44.1851	431.0000
44.2046	414.0000
44.2240	386.0000
44.2435	374.0000
44.2629	367.0000
44.2824	371.0000
44.3018	337.0000
44.3213	329.0000
44.3408	305.0000
44.3602	352.0000
44.3797	306.0000
44.3991	312.0000
44.4186	334.0000
44.4380	284.0000
44.4575	294.0000
44.4770	283.0000
44.4964	267.0000
44.5159	283.0000
44.5353	288.0000
44.5548	234.0000
44.5742	234.0000
44.5937	279.0000
44.6132	269.0000
44.6326	302.0000
44.6521	285.0000
44.6715	244.0000
44.6910	244.0000
44.7104	264.0000
44.7299	284.0000
44.7494	248.0000
44.7688	252.0000
44.7883	233.0000
44.8077	226.0000
44.8272	225.0000
44.8466	255.0000
44.8661	221.0000
44.8856	243.0000
44.9050	230.0000
44.9245	264.0000
44.9439	238.0000
44.9634	244.0000
44.9828	224.0000
45.0023	270.0000
45.0218	242.0000
45.0412	263.0000
45.0607	241.0000
45.0801	225.0000
45.0996	244.0000
45.1190	220.0000
45.1385	259.0000
45.1580	234.0000
45.1774	214.0000
45.1969	215.0000
45.2163	211.0000
45.2358	217.0000
45.2552	252.0000
45.2747	221.0000
45.2942	234.0000
45.3136	256.0000
45.3331	219.0000
45.3525	220.0000
45.3720	201.0000
45.3914	245.0000
45.4109	228.0000
45.4304	244.0000
45.4498	236.0000
45.4693	239.0000
45.4887	222.0000
45.5082	220.0000
45.5276	229.0000
45.5471	219.0000
45.5666	261.0000
45.5860	210.0000
45.6055	211.0000
45.6249	217.0000
45.6444	235.0000
45.6638	257.0000
45.6833	210.0000
45.7028	235.0000
45.7222	254.0000
45.7417	214.0000
45.7611	236.0000
45.7806	206.0000
45.8000	195.0000
45.8195	214.0000
45.8390	226.0000
45.8584	236.0000
45.8779	238.0000
45.8973	190.0000
45.9168	219.0000
45.9362	225.0000
45.9557	231.0000
45.9752	226.0000
45.9946	214.0000
46.0141	228.0000
46.0335	230.0000
46.0530	219.0000
46.0724	213.0000
46.0919	215.0000
46.1114	195.0000
46.1308	203.0000
46.1503	212.0000
46.1697	223.0000
46.1892	241.0000
46.2086	221.0000
46.2281	230.0000
46.2476	238.0000
46.2670	228.0000
46.2865	211.0000
46.3059	233.0000
46.3254	242.0000
46.3448	227.0000
46.3643	225.0000
46.3838	232.0000
46.4032	228.0000
46.4227	210.0000
46.4421	216.0000
46.4616	212.0000
46.4810	226.0000
46.5005	218.0000
46.5200	217.0000
46.5394	251.0000
46.5589	216.0000
46.5783	196.0000
46.5978	204.0000
46.6172	225.0000
46.6367	241.0000
46.6562	247.0000
46.6756	216.0000
46.6951	234.0000
46.7145	220.0000
46.7340	221.0000
46.7534	217.0000
46.7729	245.0000
46.7924	213.0000
46.8118	212.0000
46.8313	226.0000
46.8507	210.0000
46.8702	233.0000
46.8896	212.0000
46.9091	227.0000
46.9285	228.0000
46.9480	228.0000
46.9675	203.0000
46.9869	194.0000
47.0064	225.0000
47.0258	199.0000
47.0453	214.0000
47.0647	221.0000
47.0842	225.0000
47.1037	199.0000
47.1231	208.0000
47.1426	235.0000
47.1620	211.0000
47.1815	192.0000
47.2009	224.0000
47.2204	222.0000
47.2399	257.0000
47.2593	225.0000
47.2788	226.0000
47.2982	223.0000
47.3177	218.0000
47.3371	229.0000
47.3566	244.0000
47.3761	218.0000
47.3955	196.0000
47.4150	245.0000
47.4344	248.0000
47.4539	216.0000
47.4733	212.0000
47.4928	229.0000
47.5123	214.0000
47.5317	217.0000
47.5512	227.0000
47.5706	229.0000
47.5901	214.0000
47.6095	212.0000
47.6290	214.0000
47.6485	242.0000
47.6679	237.0000
47.6874	244.0000
47.7068	254.0000
47.7263	204.0000
47.7457	219.0000
47.7652	221.0000
47.7847	228.0000
47.8041	232.0000
47.8236	197.0000
47.8430	199.0000
47.8625	238.0000
47.8819	223.0000
47.9014	193.0000
47.9209	220.0000
47.9403	254.0000
47.9598	221.0000
47.9792	220.0000
47.9987	240.0000
48.0181	218.0000
48.0376	193.0000
48.0571	233.0000
48.0765	215.0000
48.0960	190.0000
48.1154	211.0000
48.1349	236.0000
48.1543	257.0000
48.1738	210.0000
48.1933	213.0000
48.2127	229.0000
48.2322	213.0000
48.2516	237.0000
48.2711	229.0000
48.2905	206.0000
48.3100	216.0000
48.3295	240.0000
48.3489	209.0000
48.3684	232.0000
48.3878	222.0000
48.4073	250.0000
48.4267	236.0000
48.4462	228.0000
48.4657	213.0000
48.4851	233.0000
48.5046	234.0000
48.5240	211.0000
48.5435	220.0000
48.5629	226.0000
48.5824	243.0000
48.6019	232.0000
48.6213	219.0000
48.6408	210.0000
48.6602	212.0000
48.6797	221.0000
48.6991	230.0000
48.7186	259.0000
48.7381	211.0000
48.7575	237.0000
48.7770	209.0000
48.7964	231.0000
48.8159	234.0000
48.8353	215.0000
48.8548	225.0000
48.8743	216.0000
48.8937	242.0000
48.9132	231.0000
48.9326	218.0000
48.9521	231.0000
48.9715	240.0000
48.9910	225.0000
49.0105	216.0000
49.0299	235.0000
49.0494	230.0000
49.0688	223.0000
49.0883	203.0000
49.1077	218.0000
49.1272	229.0000
49.1467	246.0000
49.1661	229.0000
49.1856	256.0000
49.2050	235.0000
49.2245	237.0000
49.2439	223.0000
49.2634	216.0000
49.2829	219.0000
49.3023	218.0000
49.3218	238.0000
49.3412	225.0000
49.3607	214.0000
49.3801	229.0000
49.3996	212.0000
49.4191	221.0000
49.4385	245.0000
49.4580	236.0000
49.4774	202.0000
49.4969	238.0000
49.5163	236.0000
49.5358	259.0000
49.5553	223.0000
49.5747	255.0000
49.5942	245.0000
49.6136	248.0000
49.6331	235.0000
49.6525	250.0000
49.6720	272.0000
49.6914	228.0000
49.7109	231.0000
49.7304	241.0000
49.7498	230.0000
49.7693	214.0000
49.7887	260.0000
49.8082	255.0000
49.8276	261.0000
49.8471	245.0000
49.8666	242.0000
49.8860	249.0000
49.9055	258.0000
49.9249	237.0000
49.9444	247.0000
49.9638	256.0000
49.9833	246.0000
50.0028	246.0000
50.0222	252.0000
50.0417	247.0000
50.0611	249.0000
50.0806	263.0000
50.1000	240.0000
50.1195	256.0000
50.1390	276.0000
50.1584	285.0000
50.1779	259.0000
50.1973	275.0000
50.2168	240.0000
50.2362	267.0000
50.2557	283.0000
50.2752	283.0000
50.2946	252.0000
50.3141	283.0000
50.3335	317.0000
50.3530	279.0000
50.3724	260.0000
50.3919	325.0000
50.4114	312.0000
50.4308	339.0000
50.4503	348.0000
50.4697	308.0000
50.4892	331.0000
50.5086	336.0000
50.5281	362.0000
50.5476	338.0000
50.5670	331.0000
50.5865	366.0000
50.6059	407.0000
50.6254	436.0000
50.6448	424.0000
50.6643	383.0000
50.6838	457.0000
50.7032	519.0000
50.7227	541.0000
50.7421	479.0000
50.7616	522.0000
50.7810	528.0000
50.8005	543.0000
50.8200	552.0000
50.8394	609.0000
50.8589	579.0000
50.8783	585.0000
50.8978	600.0000
50.9172	595.0000
50.9367	603.0000
50.9562	505.0000
50.9756	515.0000
50.9951	517.0000
51.0145	471.0000
51.0340	479.0000
51.0534	457.0000
51.0729	421.0000
51.0924	431.0000
51.1118	435.0000
51.1313	385.0000
51.1507	342.0000
51.1702	357.0000
51.1896	385.0000
51.2091	339.0000
51.2286	354.0000
51.2480	354.0000
51.2675	314.0000
51.2869	311.0000
51.3064	312.0000
51.3258	319.0000
51.3453	282.0000
51.3648	281.0000
51.3842	288.0000
51.4037	289.0000
51.4231	236.0000
51.4426	241.0000
51.4620	264.0000
51.4815	262.0000
51.5010	255.0000
51.5204	256.0000
51.5399	273.0000
51.5593	270.0000
51.5788	253.0000
51.5982	252.0000
51.6177	237.0000
51.6372	234.0000
51.6566	234.0000
51.6761	260.0000
51.6955	235.0000
51.7150	251.0000
51.7344	238.0000
51.7539	233.0000
51.7734	263.0000
51.7928	213.0000
51.8123	236.0000
51.8317	234.0000
51.8512	218.0000
51.8706	228.0000
51.8901	234.0000
51.9096	242.0000
51.9290	212.0000
51.9485	194.0000
51.9679	232.0000
51.9874	250.0000
52.0068	246.0000
52.0263	201.0000
52.0458	235.0000
52.0652	231.0000
52.0847	235.0000
52.1041	227.0000
52.1236	236.0000
52.1430	260.0000
52.1625	232.0000
52.1820	228.0000
52.2014	241.0000
52.2209	230.0000
52.2403	218.0000
52.2598	202.0000
52.2792	249.0000
52.2987	237.0000
52.3182	234.0000
52.3376	246.0000
52.3571	257.0000
52.3765	249.0000
52.3960	236.0000
52.4154	229.0000
52.4349	217.0000
52.4544	223.0000
52.4738	237.0000
52.4933	229.0000
52.5127	201.0000
52.5322	243.0000
52.5516	210.0000
52.5711	207.0000
52.5905	216.0000
52.6100	253.0000
52.6295	223.0000
52.6489	215.0000
52.6684	243.0000
52.6878	227.0000
52.7073	189.0000
52.7267	210.0000
52.7462	221.0000
52.7657	231.0000
52.7851	231.0000
52.8046	248.0000
52.8240	201.0000
52.8435	208.0000
52.8629	212.0000
52.8824	223.0000
52.9019	246.0000
52.9213	201.0000
52.9408	238.0000
52.9602	202.0000
52.9797	214.0000
52.9991	221.0000
53.0186	238.0000
53.0381	226.0000
53.0575	230.0000
53.0770	212.0000
53.0964	203.0000
53.1159	204.0000
53.1353	204.0000
53.1548	250.0000
53.1743	230.0000
53.1937	221.0000
53.2132	202.0000
53.2326	218.0000
53.2521	229.0000
53.2715	218.0000
53.2910	209.0000
53.3105	227.0000
53.3299	235.0000
53.3494	218.0000
53.3688	230.0000
53.3883	241.0000
53.4077	201.0000
53.4272	226.0000
53.4467	224.0000
53.4661	208.0000
53.4856	236.0000
53.5050	210.0000
53.5245	223.0000
53.5439	235.0000
53.5634	208.0000
53.5829	201.0000
53.6023	257.0000
53.6218	195.0000
53.6412	205.0000
53.6607	212.0000
53.6801	208.0000
53.6996	224.0000
53.7191	187.0000
53.7385	206.0000
53.7580	208.0000
53.7774	277.0000
53.7969	241.0000
53.8163	224.0000
53.8358	215.0000
53.8553	206.0000
53.8747	218.0000
53.8942	224.0000
53.9136	223.0000
53.9331	242.0000
53.9525	202.0000
53.9720	232.0000
53.9915	216.0000
54.0109	209.0000
54.0304	230.0000
54.0498	201.0000
54.0693	244.0000
54.0887	212.0000
54.1082	206.0000
54.1277	230.0000
54.1471	228.0000
54.1666	224.0000
54.1860	220.0000
54.2055	240.0000
54.2249	224.0000
54.2444	235.0000
54.2639	214.0000
54.2833	187.0000
54.3028	202.0000
54.3222	253.0000
54.3417	218.0000
54.3611	226.0000
54.3806	207.0000
54.4001	197.0000
54.4195	200.0000
54.4390	212.0000
54.4584	232.0000
54.4779	210.0000
54.4973	225.0000
54.5168	191.0000
54.5363	208.0000
54.5557	208.0000
54.5752	208.0000
54.5946	212.0000
54.6141	222.0000
54.6335	231.0000
54.6530	178.0000
54.6725	213.0000
54.6919	234.0000
54.7114	184.0000
54.7308	227.0000
54.7503	227.0000
54.7697	205.0000
54.7892	209.0000
54.8087	220.0000
54.8281	225.0000
54.8476	214.0000
54.8670	217.0000
54.8865	197.0000
54.9059	221.0000
54.9254	267.0000
54.9449	192.0000
54.9643	216.0000
54.9838	227.0000
55.0032	224.0000
55.0227	213.0000
55.0421	209.0000
55.0616	232.0000
55.0811	216.0000
55.1005	215.0000
55.1200	205.0000
55.1394	221.0000
55.1589	210.0000
55.1783	207.0000
55.1978	220.0000
55.2173	204.0000
55.2367	231.0000
55.2562	228.0000
55.2756	216.0000
55.2951	193.0000
55.3145	189.0000
55.3340	246.0000
55.3534	229.0000
55.3729	247.0000
55.3924	200.0000
55.4118	186.0000
55.4313	200.0000
55.4507	213.0000
55.4702	205.0000
55.4896	219.0000
55.5091	218.0000
55.5286	223.0000
55.5480	215.0000
55.5675	203.0000
55.5869	199.0000
55.6064	221.0000
55.6258	209.0000
55.6453	225.0000
55.6648	217.0000
55.6842	222.0000
55.7037	226.0000
55.7231	211.0000
55.7426	187.0000
55.7620	194.0000
55.7815	209.0000
55.8010	220.0000
55.8204	218.0000
55.8399	204.0000
55.8593	205.0000
55.8788	204.0000
55.8982	203.0000
55.9177	228.0000
55.9372	212.0000
55.9566	218.0000
55.9761	213.0000
55.9955	226.0000
56.0150	236.0000
56.0344	198.0000
56.0539	197.0000
56.0734	213.0000
56.0928	206.0000
56.1123	229.0000
56.1317	222.0000
56.1512	230.0000
56.1706	226.0000
56.1901	223.0000
56.2096	229.0000
56.2290	235.0000
56.2485	207.0000
56.2679	221.0000
56.2874	235.0000
56.3068	201.0000
56.3263	208.0000
56.3458	215.0000
56.3652	214.0000
56.3847	215.0000
56.4041	208.0000
56.4236	227.0000
56.4430	210.0000
56.4625	204.0000
56.4820	228.0000
56.5014	214.0000
56.5209	193.0000
56.5403	182.0000
56.5598	218.0000
56.5792	229.0000
56.5987	221.0000
56.6182	250.0000
56.6376	204.0000
56.6571	248.0000
56.6765	243.0000
56.6960	226.0000
56.7154	178.0000
56.7349	210.0000
56.7544	232.0000
56.7738	222.0000
56.7933	203.0000
56.8127	218.0000
56.8322	220.0000
56.8516	215.0000
56.8711	238.0000
56.8906	201.0000
56.9100	257.0000
56.9295	255.0000
56.9489	183.0000
56.9684	232.0000
56.9878	231.0000
57.0073	223.0000
57.0268	212.0000
57.0462	228.0000
57.0657	179.0000
57.0851	213.0000
57.1046	225.0000
57.1240	222.0000
57.1435	193.0000
57.1630	228.0000
57.1824	205.0000
57.2019	223.0000
57.2213	236.0000
57.2408	196.0000
57.2602	216.0000
57.2797	209.0000
57.2992	207.0000
57.3186	225.0000
57.3381	197.0000
57.3575	239.0000
57.3770	204.0000
57.3964	227.0000
57.4159	233.0000
57.4354	212.0000
57.4548	214.0000
57.4743	223.0000
57.4937	190.0000
57.5132	186.0000
57.5326	221.0000
57.5521	222.0000
57.5716	233.0000
57.5910	211.0000
57.6105	203.0000
57.6299	189.0000
57.6494	248.0000
57.6688	221.0000
57.6883	226.0000
57.7078	210.0000
57.7272	217.0000
57.7467	209.0000
57.7661	223.0000
57.7856	206.0000
57.8050	210.0000
57.8245	235.0000
57.8440	239.0000
57.8634	243.0000
57.8829	218.0000
57.9023	173.0000
57.9218	233.0000
57.9412	238.0000
57.9607	211.0000
57.9802	234.0000
57.9996	212.0000
58.0191	221.0000
58.0385	233.0000
58.0580	204.0000
58.0774	214.0000
58.0969	196.0000
58.1163	235.0000
58.1358	233.0000
58.1553	229.0000
58.1747	207.0000
58.1942	228.0000
58.2136	209.0000
58.2331	217.0000
58.2525	211.0000
58.2720	185.0000
58.2915	211.0000
58.3109	199.0000
58.3304	213.0000
58.3498	236.0000
58.3693	241.0000
58.3887	231.0000
58.4082	232.0000
58.4277	210.0000
58.4471	223.0000
58.4666	233.0000
58.4860	210.0000
58.5055	221.0000
58.5249	211.0000
58.5444	212.0000
58.5639	230.0000
58.5833	223.0000
58.6028	236.0000
58.6222	224.0000
58.6417	204.0000
58.6611	201.0000
58.6806	222.0000
58.7001	199.0000
58.7195	222.0000
58.7390	214.0000
58.7584	226.0000
58.7779	234.0000
58.7973	223.0000
58.8168	224.0000
58.8363	230.0000
58.8557	212.0000
58.8752	230.0000
58.8946	225.0000
58.9141	205.0000
58.9335	206.0000
58.9530	224.0000
58.9725	193.0000
58.9919	234.0000
59.0114	226.0000
59.0308	213.0000
59.0503	243.0000
59.0697	230.0000
59.0892	219.0000
59.1087	210.0000
59.1281	214.0000
59.1476	265.0000
59.1670	222.0000
59.1865	222.0000
59.2059	219.0000
59.2254	205.0000
59.2449	205.0000
59.2643	215.0000
59.2838	212.0000
59.3032	225.0000
59.3227	217.0000
59.3421	225.0000
59.3616	216.0000
59.3811	211.0000
59.4005	207.0000
59.4200	223.0000
59.4394	223.0000
59.4589	215.0000
59.4783	241.0000
59.4978	227.0000
59.5173	223.0000
59.5367	214.0000
59.5562	210.0000
59.5756	215.0000
59.5951	228.0000
59.6145	213.0000
59.6340	203.0000
59.6535	229.0000
59.6729	220.0000
59.6924	196.0000
59.7118	213.0000
59.7313	242.0000
59.7507	220.0000
59.7702	225.0000
59.7897	205.0000
59.8091	219.0000
59.8286	221.0000
59.8480	230.0000
59.8675	204.0000
59.8869	223.0000
59.9064	198.0000
59.9259	236.0000
59.9453	198.0000
59.9648	208.0000
59.9842	229.0000
60.0037	213.0000
60.0231	233.0000
60.0426	215.0000
60.0621	216.0000
60.0815	221.0000
60.1010	224.0000
60.1204	222.0000
60.1399	214.0000
60.1593	234.0000
60.1788	215.0000
60.1983	212.0000
60.2177	210.0000
60.2372	194.0000
60.2566	250.0000
60.2761	241.0000
60.2955	198.0000
60.3150	218.0000
60.3345	247.0000
60.3539	214.0000
60.3734	243.0000
60.3928	256.0000
60.4123	219.0000
60.4317	230.0000
60.4512	205.0000
60.4707	209.0000
60.4901	201.0000
60.5096	194.0000
60.5290	218.0000
60.5485	208.0000
60.5679	236.0000
60.5874	210.0000
60.6069	214.0000
60.6263	214.0000
60.6458	207.0000
60.6652	238.0000
60.6847	215.0000
60.7041	197.0000
60.7236	208.0000
60.7431	216.0000
60.7625	228.0000
60.7820	223.0000
60.8014	208.0000
60.8209	229.0000
60.8403	226.0000
60.8598	201.0000
60.8793	214.0000
60.8987	219.0000
60.9182	203.0000
60.9376	214.0000
60.9571	193.0000
60.9765	193.0000
60.9960	190.0000
61.0154	249.0000
61.0349	190.0000
61.0544	212.0000
61.0738	243.0000
61.0933	211.0000
61.1127	223.0000
61.1322	232.0000
61.1516	198.0000
61.1711	229.0000
61.1906	220.0000
61.2100	235.0000
61.2295	210.0000
61.2489	224.0000
61.2684	231.0000
61.2878	199.0000
61.3073	235.0000
61.3268	228.0000
61.3462	213.0000
61.3657	239.0000
61.3851	214.0000
61.4046	206.0000
61.4240	239.0000
61.4435	225.0000
61.4630	224.0000
61.4824	206.0000
61.5019	199.0000
61.5213	221.0000
61.5408	202.0000
61.5602	227.0000
61.5797	217.0000
61.5992	210.0000
61.6186	193.0000
61.6381	223.0000
61.6575	222.0000
61.6770	215.0000
61.6964	213.0000
61.7159	238.0000
61.7354	212.0000
61.7548	235.0000
61.7743	198.0000
61.7937	219.0000
61.8132	224.0000
61.8326	209.0000
61.8521	214.0000
61.8716	209.0000
61.8910	223.0000
61.9105	217.0000
61.9299	201.0000
61.9494	209.0000
61.9688	195.0000
61.9883	239.0000
62.0078	202.0000
62.0272	214.0000
62.0467	213.0000
62.0661	214.0000
62.0856	200.0000
62.1050	218.0000
62.1245	212.0000
62.1440	234.0000
62.1634	228.0000
62.1829	215.0000
62.2023	194.0000
62.2218	201.0000
62.2412	251.0000
62.2607	214.0000
62.2802	197.0000
62.2996	235.0000
62.3191	219.0000
62.3385	225.0000
62.3580	249.0000
62.3774	234.0000
62.3969	217.0000
62.4164	217.0000
62.4358	210.0000
62.4553	221.0000
62.4747	234.0000
62.4942	196.0000
62.5136	231.0000
62.5331	229.0000
62.5526	227.0000
62.5720	214.0000
62.5915	197.0000
62.6109	236.0000
62.6304	242.0000
62.6498	189.0000
62.6693	191.0000
62.6888	198.0000
62.7082	232.0000
62.7277	208.0000
62.7471	217.0000
62.7666	248.0000
62.7860	195.0000
62.8055	223.0000
62.8250	218.0000
62.8444	198.0000
62.8639	223.0000
62.8833	248.0000
62.9028	229.0000
62.9222	231.0000
62.9417	207.0000
62.9612	225.0000
62.9806	205.0000
63.0001	217.0000
63.0195	232.0000
63.0390	200.0000
63.0584	247.0000
63.0779	208.0000
63.0974	211.0000
63.1168	212.0000
63.1363	206.0000
63.1557	219.0000
63.1752	199.0000
63.1946	225.0000
63.2141	231.0000
63.2336	209.0000
63.2530	204.0000
63.2725	224.0000
63.2919	234.0000
63.3114	201.0000
63.3308	217.0000
63.3503	212.0000
63.3698	210.0000
63.3892	185.0000
63.4087	208.0000
63.4281	227.0000
63.4476	202.0000
63.4670	244.0000
63.4865	209.0000
63.5060	208.0000
63.5254	211.0000
63.5449	229.0000
63.5643	259.0000
63.5838	204.0000
63.6032	205.0000
63.6227	200.0000
63.6422	201.0000
63.6616	251.0000
63.6811	207.0000
63.7005	216.0000
63.7200	230.0000
63.7394	204.0000
63.7589	209.0000
63.7783	220.0000
63.7978	222.0000
63.8173	211.0000
63.8367	243.0000
63.8562	205.0000
63.8756	205.0000
63.8951	220.0000
63.9145	219.0000
63.9340	223.0000
63.9535	222.0000
63.9729	226.0000
63.9924	228.0000
64.0118	220.0000
64.0313	216.0000
64.0507	226.0000
64.0702	239.0000
64.0897	207.0000
64.1091	230.0000
64.1286	194.0000
64.1480	197.0000
64.1675	220.0000
64.1869	217.0000
64.2064	224.0000
64.2259	226.0000
64.2453	211.0000
64.2648	221.0000
64.2842	220.0000
64.3037	206.0000
64.3231	211.0000
64.3426	206.0000
64.3621	198.0000
64.3815	217.0000
64.4010	216.0000
64.4204	236.0000
64.4399	220.0000
64.4593	214.0000
64.4788	211.0000
64.4983	224.0000
64.5177	224.0000
64.5372	213.0000
64.5566	232.0000
64.5761	247.0000
64.5955	220.0000
64.6150	233.0000
64.6345	208.0000
64.6539	198.0000
64.6734	245.0000
64.6928	194.0000
64.7123	207.0000
64.7317	235.0000
64.7512	207.0000
64.7707	209.0000
64.7901	212.0000
64.8096	206.0000
64.8290	214.0000
64.8485	239.0000
64.8679	226.0000
64.8874	222.0000
64.9069	218.0000
64.9263	195.0000
64.9458	208.0000
64.9652	230.0000
64.9847	244.0000
65.0041	208.0000
65.0236	221.0000
65.0431	215.0000
65.0625	222.0000
65.0820	210.0000
65.1014	229.0000
65.1209	241.0000
65.1403	208.0000
65.1598	255.0000
65.1793	207.0000
65.1987	227.0000
65.2182	220.0000
65.2376	205.0000
65.2571	217.0000
65.2765	216.0000
65.2960	225.0000
65.3155	227.0000
65.3349	216.0000
65.3544	191.0000
65.3738	208.0000
65.3933	229.0000
65.4127	239.0000
65.4322	213.0000
65.4517	220.0000
65.4711	228.0000
65.4906	215.0000
65.5100	202.0000
65.5295	204.0000
65.5489	203.0000
65.5684	224.0000
65.5879	200.0000
65.6073	212.0000
65.6268	233.0000
65.6462	216.0000
65.6657	207.0000
65.6851	197.0000
65.7046	213.0000
65.7241	233.0000
65.7435	201.0000
65.7630	223.0000
65.7824	191.0000
65.8019	230.0000
65.8213	221.0000
65.8408	199.0000
65.8603	212.0000
65.8797	210.0000
65.8992	224.0000
65.9186	237.0000
65.9381	215.0000
65.9575	215.0000
65.9770	181.0000
65.9965	225.0000
66.0159	209.0000
66.0354	191.0000
66.0548	224.0000
66.0743	231.0000
66.0937	219.0000
66.1132	218.0000
66.1327	210.0000
66.1521	215.0000
66.1716	231.0000
66.1910	213.0000
66.2105	205.0000
66.2299	207.0000
66.2494	227.0000
66.2689	236.0000
66.2883	204.0000
66.3078	205.0000
66.3272	210.0000
66.3467	192.0000
66.3661	182.0000
66.3856	214.0000
66.4051	230.0000
66.4245	216.0000
66.4440	211.0000
66.4634	213.0000
66.4829	199.0000
66.5023	225.0000
66.5218	211.0000
66.5413	224.0000
66.5607	203.0000
66.5802	219.0000
66.5996	226.0000
66.6191	202.0000
66.6385	195.0000
66.6580	212.0000
66.6774	200.0000
66.6969	197.0000
66.7164	239.0000
66.7358	238.0000
66.7553	235.0000
66.7747	237.0000
66.7942	226.0000
66.8136	244.0000
66.8331	198.0000
66.8526	217.0000
66.8720	221.0000
66.8915	213.0000
66.9109	239.0000
66.9304	218.0000
66.9498	205.0000
66.9693	229.0000
66.9888	226.0000
67.0082	231.0000
67.0277	237.0000
67.0471	211.0000
67.0666	216.0000
67.0860	215.0000
67.1055	203.0000
67.1250	206.0000
67.1444	239.0000
67.1639	202.0000
67.1833	231.0000
67.2028	208.0000
67.2222	200.0000
67.2417	207.0000
67.2612	227.0000
67.2806	201.0000
67.3001	212.0000
67.3195	196.0000
67.3390	239.0000
67.3584	237.0000
67.3779	234.0000
67.3974	204.0000
67.4168	178.0000
67.4363	204.0000
67.4557	225.0000
67.4752	195.0000
67.4946	227.0000
67.5141	197.0000
67.5336	238.0000
67.5530	226.0000
67.5725	195.0000
67.5919	184.0000
67.6114	224.0000
67.6308	220.0000
67.6503	223.0000
67.6698	233.0000
67.6892	226.0000
67.7087	215.0000
67.7281	247.0000
67.7476	224.0000
67.7670	255.0000
67.7865	208.0000
67.8060	184.0000
67.8254	232.0000
67.8449	218.0000
67.8643	219.0000
67.8838	205.0000
67.9032	220.0000
67.9227	207.0000
67.9422	210.0000
67.9616	192.0000
67.9811	210.0000
68.0005	213.0000
68.0200	213.0000
68.0394	210.0000
68.0589	210.0000
68.0784	229.0000
68.0978	203.0000
68.1173	188.0000
68.1367	226.0000
68.1562	191.0000
68.1756	212.0000
68.1951	219.0000
68.2146	199.0000
68.2340	200.0000
68.2535	213.0000
68.2729	226.0000
68.2924	223.0000
68.3118	220.0000
68.3313	191.0000
68.3508	222.0000
68.3702	222.0000
68.3897	186.0000
68.4091	223.0000
68.4286	198.0000
68.4480	220.0000
68.4675	222.0000
68.4870	229.0000
68.5064	247.0000
68.5259	202.0000
68.5453	234.0000
68.5648	185.0000
68.5842	237.0000
68.6037	244.0000
68.6232	197.0000
68.6426	211.0000
68.6621	219.0000
68.6815	236.0000
68.7010	204.0000
68.7204	200.0000
68.7399	194.0000
68.7594	198.0000
68.7788	217.0000
68.7983	228.0000
68.8177	213.0000
68.8372	195.0000
68.8566	233.0000
68.8761	247.0000
68.8956	217.0000
68.9150	204.0000
68.9345	193.0000
68.9539	253.0000
68.9734	203.0000
68.9928	230.0000
69.0123	246.0000
69.0318	225.0000
69.0512	220.0000
69.0707	216.0000
69.0901	200.0000
69.1096	209.0000
69.1290	200.0000
69.1485	202.0000
69.1680	234.0000
69.1874	224.0000
69.2069	196.0000
69.2263	202.0000
69.2458	205.0000
69.2652	233.0000
69.2847	188.0000
69.3042	204.0000
69.3236	226.0000
69.3431	247.0000
69.3625	191.0000
69.3820	229.0000
69.4014	211.0000
69.4209	234.0000
69.4403	227.0000
69.4598	198.0000
69.4793	207.0000
69.4987	212.0000
69.5182	231.0000
69.5376	220.0000
69.5571	226.0000
69.5765	204.0000
69.5960	230.0000
69.6155	236.0000
69.6349	192.0000
69.6544	220.0000
69.6738	229.0000
69.6933	226.0000
69.7127	216.0000
69.7322	214.0000
69.7517	220.0000
69.7711	204.0000
69.7906	248.0000
69.8100	231.0000
69.8295	194.0000
69.8489	220.0000
69.8684	207.0000
69.8879	212.0000
69.9073	207.0000
69.9268	192.0000
69.9462	215.0000
69.9657	219.0000
69.9851	214.0000
70.0046	191.0000
70.0241	221.0000
70.0435	234.0000
70.0630	223.0000
70.0824	203.0000
70.1019	222.0000
70.1213	209.0000
70.1408	230.0000
70.1603	219.0000
70.1797	213.0000
70.1992	188.0000
70.2186	209.0000
70.2381	201.0000
70.2575	236.0000
70.2770	221.0000
70.2965	222.0000
70.3159	225.0000
70.3354	214.0000
70.3548	230.0000
70.3743	250.0000
70.3937	207.0000
70.4132	215.0000
70.4327	224.0000
70.4521	235.0000
70.4716	238.0000
70.4910	217.0000
70.5105	224.0000
70.5299	214.0000
70.5494	232.0000
70.5689	210.0000
70.5883	208.0000
70.6078	239.0000
70.6272	195.0000
70.6467	204.0000
70.6661	203.0000
70.6856	231.0000
70.7051	198.0000
70.7245	225.0000
70.7440	226.0000
70.7634	200.0000
70.7829	219.0000
70.8023	230.0000
70.8218	210.0000
70.8413	211.0000
70.8607	259.0000
70.8802	222.0000
70.8996	232.0000
70.9191	222.0000
70.9385	240.0000
70.9580	196.0000
70.9775	185.0000
70.9969	211.0000
71.0164	217.0000
71.0358	204.0000
71.0553	206.0000
71.0747	209.0000
71.0942	219.0000
71.1137	203.0000
71.1331	210.0000
71.1526	208.0000
71.1720	217.0000
71.1915	211.0000
71.2109	235.0000
71.2304	260.0000
71.2499	213.0000
71.2693	212.0000
71.2888	212.0000
71.3082	239.0000
71.3277	230.0000
71.3471	267.0000
71.3666	221.0000
71.3861	225.0000
71.4055	202.0000
71.4250	240.0000
71.4444	235.0000
71.4639	231.0000
71.4833	214.0000
71.5028	214.0000
71.5223	226.0000
71.5417	216.0000
71.5612	201.0000
71.5806	211.0000
71.6001	215.0000
71.6195	225.0000
71.6390	226.0000
71.6585	210.0000
71.6779	210.0000
71.6974	208.0000
71.7168	215.0000
71.7363	207.0000
71.7557	212.0000
71.7752	191.0000
71.7947	232.0000
71.8141	204.0000
71.8336	206.0000
71.8530	232.0000
71.8725	247.0000
71.8919	206.0000
71.9114	190.0000
71.9309	226.0000
71.9503	197.0000
71.9698	201.0000
71.9892	230.0000
72.0087	234.0000
72.0281	218.0000
72.0476	245.0000
72.0671	214.0000
72.0865	213.0000
72.1060	225.0000
72.1254	217.0000
72.1449	223.0000
72.1643	226.0000
72.1838	207.0000
72.2032	219.0000
72.2227	197.0000
72.2422	194.0000
72.2616	237.0000
72.2811	223.0000
72.3005	236.0000
72.3200	219.0000
72.3394	227.0000
72.3589	218.0000
72.3784	238.0000
72.3978	226.0000
72.4173	203.0000
72.4367	197.0000
72.4562	232.0000
72.4756	208.0000
72.4951	215.0000
72.5146	212.0000
72.5340	202.0000
72.5535	223.0000
72.5729	206.0000
72.5924	193.0000
72.6118	205.0000
72.6313	220.0000
72.6508	244.0000
72.6702	236.0000
72.6897	223.0000
72.7091	215.0000
72.7286	234.0000
72.7480	216.0000
72.7675	200.0000
72.7870	251.0000
72.8064	215.0000
72.8259	228.0000
72.8453	216.0000
72.8648	194.0000
72.8842	217.0000
72.9037	225.0000
72.9232	211.0000
72.9426	235.0000
72.9621	258.0000
72.9815	203.0000
73.0010	243.0000
73.0204	225.0000
73.0399	216.0000
73.0594	199.0000
73.0788	240.0000
73.0983	242.0000
73.1177	241.0000
73.1372	219.0000
73.1566	199.0000
73.1761	212.0000
73.1956	259.0000
73.2150	214.0000
73.2345	246.0000
73.2539	239.0000
73.2734	213.0000
73.2928	245.0000
73.3123	244.0000
73.3318	233.0000
73.3512	179.0000
73.3707	242.0000
73.3901	244.0000
73.4096	202.0000
73.4290	211.0000
73.4485	225.0000
73.4680	217.0000
73.4874	211.0000
73.5069	266.0000
73.5263	236.0000
73.5458	219.0000
73.5652	228.0000
73.5847	211.0000
73.6042	210.0000
73.6236	231.0000
73.6431	236.0000
73.6625	216.0000
73.6820	218.0000
73.7014	227.0000
73.7209	211.0000
73.7404	203.0000
73.7598	226.0000
73.7793	214.0000
73.7987	226.0000
73.8182	221.0000
73.8376	244.0000
73.8571	213.0000
73.8766	241.0000
73.8960	196.0000
73.9155	213.0000
73.9349	216.0000
73.9544	218.0000
73.9738	218.0000
73.9933	235.0000
74.0128	214.0000
74.0322	234.0000
74.0517	209.0000
74.0711	214.0000
74.0906	235.0000
74.1100	230.0000
74.1295	247.0000
74.1490	229.0000
74.1684	214.0000
74.1879	246.0000
74.2073	226.0000
74.2268	251.0000
74.2462	246.0000
74.2657	276.0000
74.2852	256.0000
74.3046	249.0000
74.3241	236.0000
74.3435	232.0000
74.3630	243.0000
74.3824	256.0000
74.4019	271.0000
74.4214	243.0000
74.4408	291.0000
74.4603	268.0000
74.4797	239.0000
74.4992	251.0000
74.5186	263.0000
74.5381	262.0000
74.5576	268.0000
74.5770	264.0000
74.5965	279.0000
74.6159	290.0000
74.6354	339.0000
74.6548	311.0000
74.6743	348.0000
74.6938	348.0000
74.7132	343.0000
74.7327	358.0000
74.7521	367.0000
74.7716	369.0000
74.7910	429.0000
74.8105	414.0000
74.8300	428.0000
74.8494	404.0000
74.8689	425.0000
74.8883	392.0000
74.9078	363.0000
74.9272	371.0000
74.9467	351.0000
74.9662	332.0000
74.9856	348.0000
75.0051	374.0000
75.0245	391.0000
75.0440	358.0000
75.0634	353.0000
75.0829	308.0000
75.1023	305.0000
75.1218	302.0000
75.1413	269.0000
75.1607	284.0000
75.1802	292.0000
75.1996	305.0000
75.2191	302.0000
75.2385	269.0000
75.2580	262.0000
75.2775	246.0000
75.2969	248.0000
75.3164	243.0000
75.3358	245.0000
75.3553	241.0000
75.3747	246.0000
75.3942	229.0000
75.4137	262.0000
75.4331	241.0000
75.4526	248.0000
75.4720	223.0000
75.4915	260.0000
75.5109	235.0000
75.5304	229.0000
75.5499	234.0000
75.5693	250.0000
75.5888	260.0000
75.6082	256.0000
75.6277	250.0000
75.6471	229.0000
75.6666	231.0000
75.6861	216.0000
75.7055	229.0000
75.7250	213.0000
75.7444	217.0000
75.7639	228.0000
75.7833	218.0000
75.8028	226.0000
75.8223	243.0000
75.8417	213.0000
75.8612	220.0000
75.8806	243.0000
75.9001	209.0000
75.9195	234.0000
75.9390	248.0000
75.9585	199.0000
75.9779	225.0000
75.9974	217.0000
76.0168	238.0000
76.0363	201.0000
76.0557	207.0000
76.0752	202.0000
76.0947	228.0000
76.1141	227.0000
76.1336	232.0000
76.1530	198.0000
76.1725	220.0000
76.1919	205.0000
76.2114	222.0000
76.2309	217.0000
76.2503	198.0000
76.2698	223.0000
76.2892	221.0000
76.3087	224.0000
76.3281	234.0000
76.3476	232.0000
76.3671	238.0000
76.3865	230.0000
76.4060	205.0000
76.4254	202.0000
76.4449	230.0000
76.4643	228.0000
76.4838	225.0000
76.5033	223.0000
76.5227	226.0000
76.5422	195.0000
76.5616	230.0000
76.5811	229.0000
76.6005	241.0000
76.6200	223.0000
76.6395	210.0000
76.6589	211.0000
76.6784	253.0000
76.6978	258.0000
76.7173	199.0000
76.7367	222.0000
76.7562	233.0000
76.7757	229.0000
76.7951	198.0000
76.8146	227.0000
76.8340	237.0000
76.8535	214.0000
76.8729	213.0000
76.8924	210.0000
76.9119	232.0000
76.9313	216.0000
76.9508	230.0000
76.9702	228.0000
76.9897	214.0000
77.0091	207.0000
77.0286	219.0000
77.0481	224.0000
77.0675	226.0000
77.0870	224.0000
77.1064	241.0000
77.1259	200.0000
77.1453	205.0000
77.1648	218.0000
77.1843	233.0000
77.2037	215.0000
77.2232	216.0000
77.2426	243.0000
77.2621	203.0000
77.2815	224.0000
77.3010	216.0000
77.3205	243.0000
77.3399	203.0000
77.3594	211.0000
77.3788	238.0000
77.3983	244.0000
77.4177	230.0000
77.4372	233.0000
77.4567	214.0000
77.4761	246.0000
77.4956	213.0000
77.5150	244.0000
77.5345	235.0000
77.5539	231.0000
77.5734	218.0000
77.5929	254.0000
77.6123	226.0000
77.6318	214.0000
77.6512	217.0000
77.6707	252.0000
77.6901	194.0000
77.7096	215.0000
77.7291	240.0000
77.7485	219.0000
77.7680	242.0000
77.7874	238.0000
77.8069	207.0000
77.8263	220.0000
77.8458	204.0000
77.8652	233.0000
77.8847	224.0000
77.9042	224.0000
77.9236	243.0000
77.9431	215.0000
77.9625	207.0000
77.9820	226.0000
78.0014	239.0000
78.0209	258.0000
78.0404	206.0000
78.0598	228.0000
78.0793	215.0000
78.0987	214.0000
78.1182	195.0000
78.1376	220.0000
78.1571	222.0000
78.1766	215.0000
78.1960	203.0000
78.2155	227.0000
78.2349	232.0000
78.2544	249.0000
78.2738	205.0000
78.2933	198.0000
78.3128	226.0000
78.3322	220.0000
78.3517	195.0000
78.3711	223.0000
78.3906	225.0000
78.4100	215.0000
78.4295	232.0000
78.4490	235.0000
78.4684	236.0000
78.4879	209.0000
78.5073	245.0000
78.5268	206.0000
78.5462	229.0000
78.5657	192.0000
78.5852	211.0000
78.6046	187.0000
78.6241	217.0000
78.6435	199.0000
78.6630	216.0000
78.6824	231.0000
78.7019	215.0000
78.7214	249.0000
78.7408	218.0000
78.7603	233.0000
78.7797	233.0000
78.7992	209.0000
78.8186	214.0000
78.8381	227.0000
78.8576	236.0000
78.8770	214.0000
78.8965	197.0000
78.9159	232.0000
78.9354	210.0000
78.9548	227.0000
78.9743	208.0000
78.9938	218.0000
79.0132	228.0000
79.0327	210.0000
79.0521	222.0000
79.0716	240.0000
79.0910	227.0000
79.1105	209.0000
79.1300	210.0000
79.1494	225.0000
79.1689	202.0000
79.1883	187.0000
79.2078	228.0000
79.2272	219.0000
79.2467	233.0000
79.2662	219.0000
79.2856	208.0000
79.3051	197.0000
79.3245	231.0000
79.3440	225.0000
79.3634	212.0000
79.3829	203.0000
79.4024	219.0000
79.4218	232.0000
79.4413	224.0000
79.4607	239.0000
79.4802	234.0000
79.4996	209.0000
79.5191	237.0000
79.5386	217.0000
79.5580	216.0000
79.5775	216.0000
79.5969	174.0000
79.6164	211.0000
79.6358	219.0000
79.6553	203.0000
79.6748	239.0000
79.6942	215.0000
79.7137	242.0000
79.7331	211.0000
79.7526	211.0000
79.7720	225.0000
79.7915	222.0000
79.8110	209.0000
79.8304	222.0000
79.8499	222.0000
79.8693	234.0000
79.8888	212.0000
79.9082	242.0000
79.9277	235.0000
79.9472	253.0000
79.9666	219.0000
79.9861	210.0000
80.0055	207.0000
80.0250	225.0000
80.0444	221.0000
80.0639	215.0000
80.0834	245.0000
80.1028	236.0000
80.1223	229.0000
80.1417	229.0000
80.1612	202.0000
80.1806	220.0000
80.2001	206.0000
80.2196	222.0000
80.2390	218.0000
80.2585	205.0000
80.2779	239.0000
80.2974	221.0000
80.3168	224.0000
80.3363	208.0000
80.3558	201.0000
80.3752	249.0000
80.3947	231.0000
80.4141	238.0000
80.4336	227.0000
80.4530	198.0000
80.4725	218.0000
80.4920	225.0000
80.5114	201.0000
80.5309	200.0000
80.5503	252.0000
80.5698	212.0000
80.5892	248.0000
80.6087	207.0000
80.6281	230.0000
80.6476	212.0000
80.6671	216.0000
80.6865	194.0000
80.7060	198.0000
80.7254	223.0000
80.7449	191.0000
80.7643	224.0000
80.7838	244.0000
80.8033	230.0000
80.8227	214.0000
80.8422	246.0000
80.8616	227.0000
80.8811	199.0000
80.9005	255.0000
80.9200	230.0000
80.9395	220.0000
80.9589	240.0000
80.9784	214.0000
80.9978	213.0000
81.0173	222.0000
81.0367	214.0000
81.0562	228.0000
81.0757	230.0000
81.0951	240.0000
81.1146	192.0000
81.1340	203.0000
81.1535	218.0000
81.1729	236.0000
81.1924	208.0000
81.2119	229.0000
81.2313	217.0000
81.2508	206.0000
81.2702	228.0000
81.2897	209.0000
81.3091	233.0000
81.3286	233.0000
81.3481	228.0000
81.3675	217.0000
81.3870	219.0000
81.4064	220.0000
81.4259	194.0000
81.4453	220.0000
81.4648	222.0000
81.4843	200.0000
81.5037	228.0000
81.5232	206.0000
81.5426	202.0000
81.5621	200.0000
81.5815	223.0000
81.6010	233.0000
81.6205	206.0000
81.6399	213.0000
81.6594	238.0000
81.6788	212.0000
81.6983	198.0000
81.7177	210.0000
81.7372	222.0000
81.7567	215.0000
81.7761	202.0000
81.7956	219.0000
81.8150	225.0000
81.8345	232.0000
81.8539	216.0000
81.8734	226.0000
81.8929	211.0000
81.9123	210.0000
81.9318	229.0000
81.9512	243.0000
81.9707	230.0000
81.9901	234.0000
82.0096	224.0000
82.0291	211.0000
82.0485	212.0000
82.0680	210.0000
82.0874	216.0000
82.1069	229.0000
82.1263	246.0000
82.1458	245.0000
82.1653	238.0000
82.1847	231.0000
82.2042	225.0000
82.2236	215.0000
82.2431	223.0000
82.2625	224.0000
82.2820	195.0000
82.3015	235.0000
82.3209	215.0000
82.3404	189.0000
82.3598	230.0000
82.3793	201.0000
82.3987	205.0000
82.4182	217.0000
82.4377	203.0000
82.4571	226.0000
82.4766	201.0000
82.4960	198.0000
82.5155	235.0000
82.5349	233.0000
82.5544	229.0000
82.5739	227.0000
82.5933	202.0000
82.6128	231.0000
82.6322	224.0000
82.6517	229.0000
82.6711	194.0000
82.6906	228.0000
82.7101	202.0000
82.7295	202.0000
82.7490	202.0000
82.7684	203.0000
82.7879	215.0000
82.8073	208.0000
82.8268	249.0000
82.8463	236.0000
82.8657	219.0000
82.8852	226.0000
82.9046	212.0000
82.9241	203.0000
82.9435	253.0000
82.9630	216.0000
82.9825	240.0000
83.0019	201.0000
83.0214	219.0000
83.0408	229.0000
83.0603	231.0000
83.0797	243.0000
83.0992	234.0000
83.1187	225.0000
83.1381	232.0000
83.1576	205.0000
83.1770	213.0000
83.1965	235.0000
83.2159	208.0000
83.2354	206.0000
83.2549	217.0000
83.2743	262.0000
83.2938	205.0000
83.3132	233.0000
83.3327	236.0000
83.3521	201.0000
83.3716	211.0000
83.3911	213.0000
83.4105	247.0000
83.4300	215.0000
83.4494	227.0000
83.4689	232.0000
83.4883	241.0000
83.5078	223.0000
83.5272	204.0000
83.5467	216.0000
83.5662	236.0000
83.5856	194.0000
83.6051	188.0000
83.6245	229.0000
83.6440	241.0000
83.6634	226.0000
83.6829	230.0000
83.7024	211.0000
83.7218	221.0000
83.7413	209.0000
83.7607	213.0000
83.7802	231.0000
83.7996	195.0000
83.8191	217.0000
83.8386	202.0000
83.8580	212.0000
83.8775	211.0000
83.8969	244.0000
83.9164	234.0000
83.9358	190.0000
83.9553	233.0000
83.9748	228.0000
83.9942	234.0000
84.0137	242.0000
84.0331	207.0000
84.0526	218.0000
84.0720	231.0000
84.0915	240.0000
84.1110	198.0000
84.1304	237.0000
84.1499	215.0000
84.1693	198.0000
84.1888	218.0000
84.2082	199.0000
84.2277	246.0000
84.2472	216.0000
84.2666	240.0000
84.2861	237.0000
84.3055	217.0000
84.3250	231.0000
84.3444	222.0000
84.3639	210.0000
84.3834	214.0000
84.4028	212.0000
84.4223	206.0000
84.4417	254.0000
84.4612	239.0000
84.4806	203.0000
84.5001	209.0000
84.5196	246.0000
84.5390	209.0000
84.5585	201.0000
84.5779	208.0000
84.5974	231.0000
84.6168	239.0000
84.6363	231.0000
84.6558	209.0000
84.6752	217.0000
84.6947	225.0000
84.7141	232.0000
84.7336	237.0000
84.7530	225.0000
84.7725	210.0000
84.7920	199.0000
84.8114	195.0000
84.8309	246.0000
84.8503	207.0000
84.8698	203.0000
84.8892	214.0000
84.9087	205.0000
84.9282	210.0000
84.9476	224.0000
84.9671	227.0000
84.9865	203.0000
85.0060	226.0000
85.0254	224.0000
85.0449	227.0000
85.0644	216.0000
85.0838	219.0000
85.1033	249.0000
85.1227	230.0000
85.1422	212.0000
85.1616	238.0000
85.1811	224.0000
85.2006	217.0000
85.2200	225.0000
85.2395	221.0000
85.2589	233.0000
85.2784	208.0000
85.2978	235.0000
85.3173	239.0000
85.3368	225.0000
85.3562	231.0000
85.3757	196.0000
85.3951	221.0000
85.4146	199.0000
85.4340	199.0000
85.4535	216.0000
85.4730	221.0000
85.4924	228.0000
85.5119	197.0000
85.5313	217.0000
85.5508	212.0000
85.5702	225.0000
85.5897	204.0000
85.6092	206.0000
85.6286	212.0000
85.6481	244.0000
85.6675	225.0000
85.6870	215.0000
85.7064	208.0000
85.7259	230.0000
85.7454	229.0000
85.7648	230.0000
85.7843	249.0000
85.8037	204.0000
85.8232	232.0000
85.8426	224.0000
85.8621	230.0000
85.8816	207.0000
85.9010	218.0000
85.9205	201.0000
85.9399	228.0000
85.9594	247.0000
85.9788	220.0000
85.9983	200.0000
86.0178	200.0000
86.0372	212.0000
86.0567	249.0000
86.0761	204.0000
86.0956	214.0000
86.1150	215.0000
86.1345	228.0000
86.1540	233.0000
86.1734	219.0000
86.1929	236.0000
86.2123	221.0000
86.2318	239.0000
86.2512	220.0000
86.2707	202.0000
86.2901	216.0000
86.3096	259.0000
86.3291	212.0000
86.3485	245.0000
86.3680	215.0000
86.3874	222.0000
86.4069	215.0000
86.4263	202.0000
86.4458	252.0000
86.4653	199.0000
86.4847	215.0000
86.5042	203.0000
86.5236	240.0000
86.5431	211.0000
86.5625	246.0000
86.5820	227.0000
86.6015	230.0000
86.6209	230.0000
86.6404	218.0000
86.6598	216.0000
86.6793	217.0000
86.6987	246.0000
86.7182	228.0000
86.7377	210.0000
86.7571	236.0000
86.7766	241.0000
86.7960	210.0000
86.8155	216.0000
86.8349	231.0000
86.8544	219.0000
86.8739	214.0000
86.8933	233.0000
86.9128	223.0000
86.9322	236.0000
86.9517	212.0000
86.9711	217.0000
86.9906	255.0000
87.0101	226.0000
87.0295	245.0000
87.0490	210.0000
87.0684	235.0000
87.0879	199.0000
87.1073	231.0000
87.1268	231.0000
87.1463	230.0000
87.1657	242.0000
87.1852	199.0000
87.2046	227.0000
87.2241	227.0000
87.2435	246.0000
87.2630	227.0000
87.2825	203.0000
87.3019	216.0000
87.3214	213.0000
87.3408	222.0000
87.3603	199.0000
87.3797	224.0000
87.3992	201.0000
87.4187	195.0000
87.4381	202.0000
87.4576	206.0000
87.4770	223.0000
87.4965	213.0000
87.5159	215.0000
87.5354	237.0000
87.5549	239.0000
87.5743	200.0000
87.5938	219.0000
87.6132	230.0000
87.6327	229.0000
87.6521	207.0000
87.6716	225.0000
87.6911	221.0000
87.7105	226.0000
87.7300	224.0000
87.7494	246.0000
87.7689	208.0000
87.7883	231.0000
87.8078	228.0000
87.8273	218.0000
87.8467	208.0000
87.8662	204.0000
87.8856	245.0000
87.9051	229.0000
87.9245	215.0000
87.9440	226.0000
87.9635	228.0000
87.9829	210.0000
88.0024	232.0000
88.0218	226.0000
88.0413	227.0000
88.0607	202.0000
88.0802	202.0000
88.0997	221.0000
88.1191	252.0000
88.1386	222.0000
88.1580	237.0000
88.1775	216.0000
88.1969	240.0000
88.2164	237.0000
88.2359	216.0000
88.2553	229.0000
88.2748	218.0000
88.2942	251.0000
88.3137	212.0000
88.3331	206.0000
88.3526	227.0000
88.3721	205.0000
88.3915	240.0000
88.4110	215.0000
88.4304	215.0000
88.4499	216.0000
88.4693	214.0000
88.4888	235.0000
88.5083	234.0000
88.5277	236.0000
88.5472	233.0000
88.5666	226.0000
88.5861	236.0000
88.6055	237.0000
88.6250	226.0000
88.6445	227.0000
88.6639	216.0000
88.6834	239.0000
88.7028	209.0000
88.7223	234.0000
88.7417	239.0000
88.7612	211.0000
88.7807	208.0000
88.8001	197.0000
88.8196	219.0000
88.8390	222.0000
88.8585	232.0000
88.8779	210.0000
88.8974	215.0000
88.9169	247.0000
88.9363	225.0000
88.9558	226.0000
88.9752	246.0000
88.9947	233.0000
89.0141	247.0000
89.0336	237.0000
89.0531	223.0000
89.0725	246.0000
89.0920	239.0000
89.1114	249.0000
89.1309	258.0000
89.1503	199.0000
89.1698	233.0000
89.1892	233.0000
89.2087	248.0000
89.2282	246.0000
89.2476	223.0000
89.2671	207.0000
89.2865	234.0000
89.3060	258.0000
89.3254	240.0000
89.3449	237.0000
89.3644	230.0000
89.3838	249.0000
89.4033	244.0000
89.4227	238.0000
89.4422	223.0000
89.4616	203.0000
89.4811	228.0000
89.5006	221.0000
89.5200	237.0000
89.5395	247.0000
89.5589	214.0000
89.5784	248.0000
89.5978	261.0000
89.6173	255.0000
89.6368	225.0000
89.6562	229.0000
89.6757	242.0000
89.6951	214.0000
89.7146	228.0000
89.7340	246.0000
89.7535	223.0000
89.7730	251.0000
89.7924	252.0000
89.8119	235.0000
89.8313	244.0000
89.8508	265.0000
89.8702	240.0000
89.8897	219.0000
89.9092	282.0000
89.9286	232.0000
89.9481	262.0000
89.9675	230.0000
89.9870	227.0000
90.0064	260.0000
90.0259	251.0000
90.0454	277.0000
90.0648	295.0000
90.0843	261.0000
90.1037	257.0000
90.1232	288.0000
90.1426	285.0000
90.1621	304.0000
90.1816	287.0000
90.2010	294.0000
90.2205	299.0000
90.2399	335.0000
90.2594	309.0000
90.2788	296.0000
90.2983	332.0000
90.3178	317.0000
90.3372	366.0000
90.3567	371.0000
90.3761	397.0000
90.3956	381.0000
90.4150	380.0000
90.4345	406.0000
90.4540	387.0000
90.4734	382.0000
90.4929	417.0000
90.5123	389.0000
90.5318	479.0000
90.5512	441.0000
90.5707	453.0000
90.5902	470.0000
90.6096	490.0000
90.6291	501.0000
90.6485	518.0000
90.6680	513.0000
90.6874	488.0000
90.7069	526.0000
90.7264	498.0000
90.7458	515.0000
90.7653	530.0000
90.7847	537.0000
90.8042	527.0000
90.8236	473.0000
90.8431	491.0000
90.8626	447.0000
90.8820	468.0000
90.9015	462.0000
90.9209	483.0000
90.9404	443.0000
90.9598	428.0000
90.9793	455.0000
90.9988	408.0000
91.0182	404.0000
91.0377	415.0000
91.0571	405.0000
91.0766	385.0000
91.0960	365.0000
91.1155	389.0000
91.1350	368.0000
91.1544	395.0000
91.1739	335.0000
91.1933	364.0000
91.2128	316.0000
91.2322	303.0000
91.2517	277.0000
91.2712	325.0000
91.2906	276.0000
91.3101	326.0000
91.3295	269.0000
91.3490	274.0000
91.3684	280.0000
91.3879	266.0000
91.4074	295.0000
91.4268	271.0000
91.4463	259.0000
91.4657	267.0000
91.4852	283.0000
91.5046	272.0000
91.5241	290.0000
91.5436	270.0000
91.5630	269.0000
91.5825	252.0000
91.6019	244.0000
91.6214	265.0000
91.6408	262.0000
91.6603	240.0000
91.6798	269.0000
91.6992	233.0000
91.7187	251.0000
91.7381	263.0000
91.7576	248.0000
91.7770	271.0000
91.7965	233.0000
91.8160	233.0000
91.8354	242.0000
91.8549	227.0000
91.8743	213.0000
91.8938	256.0000
91.9132	222.0000
91.9327	245.0000
91.9521	240.0000
91.9716	277.0000
91.9911	226.0000
92.0105	251.0000
92.0300	268.0000
92.0494	249.0000
92.0689	250.0000
92.0883	261.0000
92.1078	256.0000
92.1273	218.0000
92.1467	248.0000
92.1662	218.0000
92.1856	241.0000
92.2051	240.0000
92.2245	219.0000
92.2440	252.0000
92.2635	227.0000
92.2829	257.0000
92.3024	245.0000
92.3218	265.0000
92.3413	233.0000
92.3607	245.0000
92.3802	242.0000
92.3997	244.0000
92.4191	245.0000
92.4386	201.0000
92.4580	248.0000
92.4775	246.0000
92.4969	233.0000
92.5164	236.0000
92.5359	245.0000
92.5553	258.0000
92.5748	218.0000
92.5942	215.0000
92.6137	204.0000
92.6331	238.0000
92.6526	203.0000
92.6721	261.0000
92.6915	247.0000
92.7110	211.0000
92.7304	250.0000
92.7499	208.0000
92.7693	241.0000
92.7888	232.0000
92.8083	247.0000
92.8277	227.0000
92.8472	220.0000
92.8666	235.0000
92.8861	241.0000
92.9055	230.0000
92.9250	224.0000
92.9445	230.0000
92.9639	234.0000
92.9834	238.0000
93.0028	239.0000
93.0223	229.0000
93.0417	227.0000
93.0612	243.0000
93.0807	222.0000
93.1001	219.0000
93.1196	217.0000
93.1390	247.0000
93.1585	251.0000
93.1779	225.0000
93.1974	229.0000
93.2169	214.0000
93.2363	228.0000
93.2558	235.0000
93.2752	230.0000
93.2947	239.0000
93.3141	206.0000
93.3336	240.0000
93.3531	256.0000
93.3725	247.0000
93.3920	232.0000
93.4114	225.0000
93.4309	210.0000
93.4503	239.0000
93.4698	221.0000
93.4893	224.0000
93.5087	233.0000
93.5282	216.0000
93.5476	244.0000
93.5671	214.0000
93.5865	242.0000
93.6060	182.0000
93.6255	216.0000
93.6449	239.0000
93.6644	215.0000
93.6838	220.0000
93.7033	230.0000
93.7227	199.0000
93.7422	233.0000
93.7617	239.0000
93.7811	237.0000
93.8006	205.0000
93.8200	225.0000
93.8395	211.0000
93.8589	231.0000
93.8784	201.0000
93.8979	229.0000
93.9173	232.0000
93.9368	219.0000
93.9562	224.0000
93.9757	243.0000
93.9951	221.0000
94.0146	250.0000
94.0341	241.0000
94.0535	226.0000
94.0730	226.0000
94.0924	258.0000
94.1119	210.0000
94.1313	226.0000
94.1508	231.0000
94.1703	241.0000
94.1897	254.0000
94.2092	239.0000
94.2286	256.0000
94.2481	229.0000
94.2675	250.0000
94.2870	220.0000
94.3065	254.0000
94.3259	241.0000
94.3454	249.0000
94.3648	220.0000
94.3843	265.0000
94.4037	251.0000
94.4232	232.0000
94.4427	233.0000
94.4621	241.0000
94.4816	252.0000
94.5010	241.0000
94.5205	234.0000
94.5399	241.0000
94.5594	225.0000
94.5789	224.0000
94.5983	244.0000
94.6178	238.0000
94.6372	223.0000
94.6567	218.0000
94.6761	218.0000
94.6956	233.0000
94.7150	210.0000
94.7345	230.0000
94.7540	234.0000
94.7734	239.0000
94.7929	233.0000
94.8123	229.0000
94.8318	234.0000
94.8512	243.0000
94.8707	240.0000
94.8902	231.0000
94.9096	224.0000
94.9291	238.0000
94.9485	252.0000
94.9680	219.0000
94.9874	248.0000
95.0069	222.0000
95.0264	220.0000
95.0458	202.0000
95.0653	239.0000
95.0847	247.0000
95.1042	225.0000
95.1236	235.0000
95.1431	225.0000
95.1626	225.0000
95.1820	216.0000
95.2015	253.0000
95.2209	232.0000
95.2404	249.0000
95.2598	261.0000
95.2793	228.0000
95.2988	225.0000
95.3182	228.0000
95.3377	242.0000
95.3571	225.0000
95.3766	266.0000
95.3960	259.0000
95.4155	249.0000
95.4350	246.0000
95.4544	230.0000
95.4739	250.0000
95.4933	230.0000
95.5128	234.0000
95.5322	236.0000
95.5517	241.0000
95.5712	247.0000
95.5906	242.0000
95.6101	213.0000
95.6295	237.0000
95.6490	268.0000
95.6684	264.0000
95.6879	254.0000
95.7074	223.0000
95.7268	261.0000
95.7463	251.0000
95.7657	271.0000
95.7852	246.0000
95.8046	254.0000
95.8241	236.0000
95.8436	236.0000
95.8630	231.0000
95.8825	253.0000
95.9019	220.0000
95.9214	229.0000
95.9408	277.0000
95.9603	245.0000
95.9798	257.0000
95.9992	239.0000
96.0187	276.0000
96.0381	258.0000
96.0576	268.0000
96.0770	299.0000
96.0965	246.0000
96.1160	276.0000
96.1354	259.0000
96.1549	229.0000
96.1743	265.0000
96.1938	264.0000
96.2132	281.0000
96.2327	276.0000
96.2522	270.0000
96.2716	259.0000
96.2911	277.0000
96.3105	259.0000
96.3300	245.0000
96.3494	256.0000
96.3689	251.0000
96.3884	249.0000
96.4078	239.0000
96.4273	270.0000
96.4467	235.0000
96.4662	265.0000
96.4856	232.0000
96.5051	241.0000
96.5246	233.0000
96.5440	280.0000
96.5635	236.0000
96.5829	265.0000
96.6024	240.0000
96.6218	239.0000
96.6413	230.0000
96.6608	226.0000
96.6802	271.0000
96.6997	236.0000
96.7191	242.0000
96.7386	223.0000
96.7580	227.0000
96.7775	237.0000
96.7970	238.0000
96.8164	236.0000
96.8359	261.0000
96.8553	228.0000
96.8748	248.0000
96.8942	243.0000
96.9137	241.0000
96.9332	238.0000
96.9526	234.0000
96.9721	231.0000
96.9915	236.0000
97.0110	248.0000
97.0304	253.0000
97.0499	224.0000
97.0694	238.0000
97.0888	222.0000
97.1083	208.0000
97.1277	251.0000
97.1472	266.0000
97.1666	226.0000
97.1861	232.0000
97.2056	237.0000
97.2250	226.0000
97.2445	241.0000
97.2639	209.0000
97.2834	228.0000
97.3028	237.0000
97.3223	241.0000
97.3418	260.0000
97.3612	211.0000
97.3807	242.0000
97.4001	216.0000
97.4196	205.0000
97.4390	222.0000
97.4585	225.0000
97.4780	231.0000
97.4974	220.0000
97.5169	244.0000
97.5363	228.0000
97.5558	241.0000
97.5752	220.0000
97.5947	233.0000
97.6141	224.0000
97.6336	233.0000
97.6531	228.0000
97.6725	194.0000
97.6920	255.0000
97.7114	219.0000
97.7309	235.0000
97.7503	262.0000
97.7698	210.0000
97.7893	242.0000
97.8087	244.0000
97.8282	251.0000
97.8476	205.0000
97.8671	218.0000
97.8865	212.0000
97.9060	227.0000
97.9255	236.0000
97.9449	271.0000
97.9644	215.0000
97.9838	207.0000
98.0033	217.0000
98.0227	222.0000
98.0422	221.0000
98.0617	243.0000
98.0811	226.0000
98.1006	227.0000
98.1200	212.0000
98.1395	232.0000
98.1589	223.0000
98.1784	201.0000
98.1979	232.0000
98.2173	214.0000
98.2368	251.0000
98.2562	245.0000
98.2757	217.0000
98.2951	230.0000
98.3146	222.0000
98.3341	214.0000
98.3535	249.0000
98.3730	216.0000
98.3924	222.0000
98.4119	241.0000
98.4313	243.0000
98.4508	228.0000
98.4703	248.0000
98.4897	215.0000
98.5092	211.0000
98.5286	236.0000
98.5481	236.0000
98.5675	216.0000
98.5870	240.0000
98.6065	233.0000
98.6259	237.0000
98.6454	188.0000
98.6648	218.0000
98.6843	230.0000
98.7037	247.0000
98.7232	229.0000
98.7427	210.0000
98.7621	244.0000
98.7816	214.0000
98.8010	241.0000
98.8205	244.0000
98.8399	241.0000
98.8594	233.0000
98.8789	208.0000
98.8983	213.0000
98.9178	260.0000
98.9372	237.0000
98.9567	252.0000
98.9761	219.0000
98.9956	212.0000
99.0151	240.0000
99.0345	231.0000
99.0540	250.0000
99.0734	236.0000
99.0929	239.0000
99.1123	221.0000
99.1318	256.0000
99.1513	221.0000
99.1707	257.0000
99.1902	235.0000
99.2096	207.0000
99.2291	236.0000
99.2485	229.0000
99.2680	218.0000
99.2875	219.0000
99.3069	231.0000
99.3264	204.0000
99.3458	219.0000
99.3653	245.0000
99.3847	224.0000
99.4042	234.0000
99.4237	223.0000
99.4431	238.0000
99.4626	222.0000
99.4820	238.0000
99.5015	249.0000
99.5209	236.0000
99.5404	229.0000
99.5599	225.0000
99.5793	232.0000
99.5988	256.0000
99.6182	225.0000
99.6377	215.0000
99.6571	253.0000
99.6766	193.0000
99.6961	217.0000
99.7155	200.0000
99.7350	207.0000
99.7544	243.0000
99.7739	253.0000
99.7933	219.0000
99.8128	223.0000
99.8323	231.0000
99.8517	237.0000
99.8712	186.0000
99.8906	218.0000
99.9101	225.0000
99.9295	213.0000
99.9490	227.0000
99.9685	231.0000
99.9879	217.0000
100.0074	226.0000
